-4.890150934808013e-09,-4.645643388067612e-09,-4.401135841327212e-09,-4.156628294586811e-09,-3.912120747846411e-09,-3.6676132011060097e-09,-3.4231056543656087e-09,-3.178598107625208e-09,-2.9340905608848076e-09,-2.689583014144407e-09,-2.4450754674040064e-09,-2.2005679206636055e-09,-1.956060373923205e-09,-1.7115528271828043e-09,-1.4670452804424034e-09,-1.2225377337020028e-09,-9.780301869616022e-10,-7.335226402212017e-10,-4.890150934808011e-10,-2.4450754674040056e-10,0.0,2.445075467404014e-10,4.89015093480802e-10,7.335226402212025e-10,9.78030186961603e-10,1.2225377337020036e-09,1.4670452804424042e-09,1.7115528271828048e-09,1.956060373923206e-09,2.2005679206636067e-09,2.4450754674040073e-09,2.689583014144407e-09,2.9340905608848084e-09,3.1785981076252098e-09,3.4231056543656095e-09,3.667613201106011e-09,3.912120747846411e-09,4.156628294586812e-09,4.401135841327212e-09,4.645643388067613e-09,4.890150934808013e-09
0.000749631853036881,0.0007494775103604792,0.0007489554063755224,0.0007478660548690107,0.0007457949910023345,0.0007419607799160075,0.00073493931812125,0.0007221984623757974,0.0006993921776715552,0.0006595322814131699,0.0005927902601099644,0.0004892310800115739,0.0003483922948033775,0.00019444958421973367,7.457456240287521e-05,1.692236341983609e-05,1.9924764562926297e-06,1.1211334468143803e-07,2.920192816249528e-09,3.520516651138899e-11,5.4599861534975615e-09,3.520516651138899e-11,2.920192816249528e-09,1.1211334468143803e-07,1.9924764562926297e-06,1.692236341983609e-05,7.457456240287521e-05,0.00019444958421973367,0.0003483922948033775,0.0004892310800115739,0.0005927902601099644,0.0006595322814131699,0.0006993921776715552,0.0007221984623757974,0.00073493931812125,0.0007419607799160075,0.0007457949910023345,0.0007478660548690107,0.0007489554063755224,0.0007494775103604792,0.000749631853036881
0.09844638298899926,0.09843624784042314,0.09840195534315975,0.09833036675180784,0.09819411932178405,0.0979413808775115,0.09747685067602961,0.09662823081792696,0.09509028162827052,0.09234083066617392,0.08754397818290281,0.07953032696645217,0.06711352023723895,0.050139414447817277,0.031050679257513036,0.01479129698660189,0.005075424216338218,0.001203938777653519,0.00019430389765346325,2.133432711237713e-05,1.429005615315338,2.133432711237713e-05,0.00019430389765346325,0.001203938777653519,0.005075424216338218,0.01479129698660189,0.031050679257513036,0.050139414447817277,0.06711352023723895,0.07953032696645217,0.08754397818290281,0.09234083066617392,0.09509028162827052,0.09662823081792696,0.09747685067602961,0.0979413808775115,0.09819411932178405,0.09833036675180784,0.09840195534315975,0.09843624784042314,0.09844638298899926
-4.890150934808013e-09,-4.8851609848745356e-09,-4.8801710349410575e-09,-4.87518108500758e-09,-4.870191135074103e-09,-4.865201185140625e-09,-4.8602112352071475e-09,-4.85522128527367e-09,-4.850231335340192e-09,-4.845241385406715e-09,-4.8402514354732375e-09,-4.835261485539759e-09,-4.830271535606282e-09,-4.825281585672805e-09,-4.820291635739327e-09,-4.815301685805849e-09,-4.810311735872372e-09,-4.805321785938894e-09,-4.800331836005417e-09,-4.795341886071939e-09,-4.790351936138461e-09,-4.785361986204984e-09,-4.780372036271507e-09,-4.7753820863380285e-09,-4.770392136404551e-09,-4.765402186471074e-09,-4.760412236537596e-09,-4.7554222866041185e-09,-4.750432336670641e-09,-4.745442386737164e-09,-4.740452436803686e-09,-4.7354624868702085e-09,-4.730472536936731e-09,-4.725482587003253e-09,-4.720492637069776e-09,-4.7155026871362985e-09,-4.7105127372028204e-09,-4.705522787269343e-09,-4.700532837335866e-09,-4.695542887402388e-09,-4.6905529374689104e-09,-4.685562987535433e-09,-4.680573037601955e-09,-4.675583087668478e-09,-4.6705931377350004e-09,-4.665603187801522e-09,-4.660613237868045e-09,-4.655623287934568e-09,-4.65063333800109e-09,-4.645643388067612e-09,-4.640653438134135e-09,-4.635663488200657e-09,-4.63067353826718e-09,-4.625683588333702e-09,-4.620693638400224e-09,-4.615703688466747e-09,-4.61071373853327e-09,-4.6057237885997915e-09,-4.600733838666314e-09,-4.595743888732837e-09,-4.590753938799359e-09,-4.5857639888658815e-09,-4.580774038932404e-09,-4.575784088998926e-09,-4.570794139065449e-09,-4.5658041891319715e-09,-4.560814239198493e-09,-4.555824289265016e-09,-4.550834339331539e-09,-4.545844389398061e-09,-4.540854439464583e-09,-4.535864489531106e-09,-4.530874539597628e-09,-4.525884589664151e-09,-4.520894639730673e-09,-4.515904689797195e-09,-4.510914739863718e-09,-4.505924789930241e-09,-4.5009348399967626e-09,-4.495944890063285e-09,-4.490954940129808e-09,-4.48596499019633e-09,-4.4809750402628526e-09,-4.475985090329375e-09,-4.470995140395897e-09,-4.46600519046242e-09,-4.4610152405289426e-09,-4.4560252905954644e-09,-4.451035340661987e-09,-4.44604539072851e-09,-4.441055440795032e-09,-4.4360654908615544e-09,-4.431075540928077e-09,-4.426085590994599e-09,-4.421095641061122e-09,-4.4161056911276445e-09,-4.411115741194166e-09,-4.406125791260689e-09,-4.401135841327212e-09,-4.396145891393734e-09,-4.391155941460256e-09,-4.386165991526779e-09,-4.381176041593301e-09,-4.376186091659824e-09,-4.371196141726346e-09,-4.366206191792868e-09,-4.361216241859391e-09,-4.356226291925914e-09,-4.3512363419924355e-09,-4.346246392058958e-09,-4.341256442125481e-09,-4.336266492192004e-09,-4.3312765422585255e-09,-4.326286592325048e-09,-4.321296642391571e-09,-4.316306692458093e-09,-4.3113167425246155e-09,-4.306326792591138e-09,-4.30133684265766e-09,-4.296346892724183e-09,-4.2913569427907055e-09,-4.286366992857227e-09,-4.28137704292375e-09,-4.276387092990273e-09,-4.271397143056795e-09,-4.266407193123317e-09,-4.26141724318984e-09,-4.256427293256362e-09,-4.251437343322885e-09,-4.246447393389407e-09,-4.241457443455929e-09,-4.236467493522452e-09,-4.231477543588975e-09,-4.226487593655497e-09,-4.221497643722019e-09,-4.216507693788542e-09,-4.211517743855064e-09,-4.206527793921587e-09,-4.201537843988109e-09,-4.196547894054631e-09,-4.191557944121154e-09,-4.186567994187677e-09,-4.1815780442541985e-09,-4.176588094320721e-09,-4.171598144387244e-09,-4.166608194453766e-09,-4.1616182445202885e-09,-4.156628294586811e-09,-4.151638344653334e-09,-4.146648394719856e-09,-4.1416584447863785e-09,-4.136668494852901e-09,-4.131678544919423e-09,-4.126688594985946e-09,-4.1216986450524685e-09,-4.11670869511899e-09,-4.111718745185513e-09,-4.106728795252036e-09,-4.101738845318558e-09,-4.09674889538508e-09,-4.091758945451603e-09,-4.086768995518125e-09,-4.081779045584648e-09,-4.07678909565117e-09,-4.071799145717692e-09,-4.066809195784215e-09,-4.061819245850738e-09,-4.0568292959172596e-09,-4.051839345983782e-09,-4.046849396050305e-09,-4.041859446116827e-09,-4.0368694961833496e-09,-4.031879546249872e-09,-4.026889596316394e-09,-4.021899646382917e-09,-4.0169096964494396e-09,-4.0119197465159614e-09,-4.006929796582484e-09,-4.001939846649007e-09,-3.996949896715529e-09,-3.9919599467820514e-09,-3.986969996848574e-09,-3.981980046915096e-09,-3.976990096981619e-09,-3.9720001470481414e-09,-3.967010197114663e-09,-3.962020247181186e-09,-3.957030297247709e-09,-3.952040347314231e-09,-3.947050397380753e-09,-3.942060447447276e-09,-3.937070497513798e-09,-3.932080547580321e-09,-3.927090597646843e-09,-3.922100647713365e-09,-3.917110697779888e-09,-3.912120747846411e-09,-3.9071307979129325e-09,-3.902140847979455e-09,-3.897150898045978e-09,-3.8921609481125e-09,-3.8871709981790225e-09,-3.882181048245545e-09,-3.877191098312067e-09,-3.87220114837859e-09,-3.8672111984451125e-09,-3.862221248511634e-09,-3.857231298578157e-09,-3.85224134864468e-09,-3.847251398711202e-09,-3.842261448777724e-09,-3.837271498844247e-09,-3.832281548910769e-09,-3.827291598977292e-09,-3.822301649043814e-09,-3.817311699110336e-09,-3.812321749176859e-09,-3.807331799243382e-09,-3.8023418493099036e-09,-3.797351899376426e-09,-3.792361949442949e-09,-3.787371999509471e-09,-3.7823820495759936e-09,-3.777392099642516e-09,-3.772402149709038e-09,-3.767412199775561e-09,-3.7624222498420836e-09,-3.7574322999086055e-09,-3.752442349975128e-09,-3.747452400041651e-09,-3.742462450108173e-09,-3.7374725001746955e-09,-3.732482550241218e-09,-3.72749260030774e-09,-3.7225026503742628e-09,-3.7175127004407855e-09,-3.7125227505073078e-09,-3.70753280057383e-09,-3.7025428506403528e-09,-3.697552900706875e-09,-3.6925629507733974e-09,-3.68757300083992e-09,-3.6825830509064424e-09,-3.6775931009729647e-09,-3.6726031510394874e-09,-3.6676132011060097e-09,-3.662623251172532e-09,-3.6576333012390547e-09,-3.652643351305577e-09,-3.6476534013720992e-09,-3.642663451438622e-09,-3.6376735015051447e-09,-3.6326835515716665e-09,-3.6276936016381892e-09,-3.622703651704712e-09,-3.617713701771234e-09,-3.6127237518377565e-09,-3.6077338019042792e-09,-3.602743851970801e-09,-3.597753902037324e-09,-3.5927639521038465e-09,-3.5877740021703684e-09,-3.582784052236891e-09,-3.577794102303414e-09,-3.572804152369936e-09,-3.5678142024364584e-09,-3.562824252502981e-09,-3.5578343025695034e-09,-3.5528443526360257e-09,-3.5478544027025484e-09,-3.5428644527690707e-09,-3.537874502835593e-09,-3.5328845529021157e-09,-3.527894602968638e-09,-3.5229046530351603e-09,-3.517914703101683e-09,-3.5129247531682053e-09,-3.5079348032347276e-09,-3.5029448533012503e-09,-3.4979549033677726e-09,-3.492964953434295e-09,-3.4879750035008176e-09,-3.48298505356734e-09,-3.477995103633862e-09,-3.473005153700385e-09,-3.468015203766907e-09,-3.4630252538334295e-09,-3.458035303899952e-09,-3.4530453539664745e-09,-3.448055404032997e-09,-3.4430654540995195e-09,-3.438075504166042e-09,-3.433085554232564e-09,-3.428095604299087e-09,-3.423105654365609e-09,-3.4181157044321314e-09,-3.413125754498654e-09,-3.4081358045651764e-09,-3.4031458546316987e-09,-3.3981559046982214e-09,-3.3931659547647437e-09,-3.388176004831266e-09,-3.3831860548977887e-09,-3.378196104964311e-09,-3.3732061550308333e-09,-3.368216205097356e-09,-3.3632262551638783e-09,-3.3582363052304006e-09,-3.3532463552969233e-09,-3.3482564053634456e-09,-3.343266455429968e-09,-3.3382765054964906e-09,-3.333286555563013e-09,-3.328296605629535e-09,-3.323306655696058e-09,-3.3183167057625806e-09,-3.3133267558291025e-09,-3.308336805895625e-09,-3.303346855962148e-09,-3.2983569060286698e-09,-3.2933669560951925e-09,-3.288377006161715e-09,-3.283387056228237e-09,-3.2783971062947598e-09,-3.2734071563612825e-09,-3.2684172064278043e-09,-3.263427256494327e-09,-3.2584373065608498e-09,-3.253447356627372e-09,-3.2484574066938943e-09,-3.243467456760417e-09,-3.2384775068269393e-09,-3.2334875568934616e-09,-3.2284976069599843e-09,-3.2235076570265066e-09,-3.218517707093029e-09,-3.2135277571595516e-09,-3.208537807226074e-09,-3.2035478572925962e-09,-3.198557907359119e-09,-3.1935679574256412e-09,-3.1885780074921635e-09,-3.1835880575586862e-09,-3.1785981076252085e-09,-3.173608157691731e-09,-3.1686182077582535e-09,-3.163628257824776e-09,-3.158638307891298e-09,-3.153648357957821e-09,-3.148658408024343e-09,-3.1436684580908654e-09,-3.138678508157388e-09,-3.1336885582239104e-09,-3.1286986082904327e-09,-3.1237086583569554e-09,-3.1187187084234777e-09,-3.11372875849e-09,-3.1087388085565227e-09,-3.103748858623045e-09,-3.0987589086895673e-09,-3.09376895875609e-09,-3.0887790088226123e-09,-3.0837890588891346e-09,-3.0787991089556573e-09,-3.0738091590221796e-09,-3.068819209088702e-09,-3.0638292591552246e-09,-3.058839309221747e-09,-3.053849359288269e-09,-3.048859409354792e-09,-3.043869459421314e-09,-3.0388795094878365e-09,-3.033889559554359e-09,-3.0288996096208815e-09,-3.023909659687404e-09,-3.0189197097539265e-09,-3.0139297598204488e-09,-3.0089398098869715e-09,-3.0039498599534938e-09,-2.998959910020016e-09,-2.9939699600865388e-09,-2.988980010153061e-09,-2.9839900602195834e-09,-2.979000110286106e-09,-2.9740101603526284e-09,-2.9690202104191507e-09,-2.9640302604856734e-09,-2.9590403105521957e-09,-2.954050360618718e-09,-2.9490604106852407e-09,-2.944070460751763e-09,-2.9390805108182853e-09,-2.934090560884808e-09,-2.9291006109513303e-09,-2.9241106610178526e-09,-2.9191207110843753e-09,-2.9141307611508976e-09,-2.90914081121742e-09,-2.9041508612839426e-09,-2.899160911350465e-09,-2.8941709614169876e-09,-2.88918101148351e-09,-2.884191061550032e-09,-2.879201111616555e-09,-2.874211161683077e-09,-2.8692212117495994e-09,-2.864231261816122e-09,-2.8592413118826444e-09,-2.8542513619491667e-09,-2.8492614120156895e-09,-2.8442714620822117e-09,-2.839281512148734e-09,-2.8342915622152567e-09,-2.829301612281779e-09,-2.8243116623483013e-09,-2.819321712414824e-09,-2.8143317624813463e-09,-2.8093418125478686e-09,-2.8043518626143913e-09,-2.7993619126809136e-09,-2.794371962747436e-09,-2.7893820128139586e-09,-2.784392062880481e-09,-2.7794021129470032e-09,-2.774412163013526e-09,-2.7694222130800482e-09,-2.7644322631465705e-09,-2.7594423132130932e-09,-2.7544523632796155e-09,-2.749462413346138e-09,-2.7444724634126605e-09,-2.739482513479183e-09,-2.734492563545705e-09,-2.729502613612228e-09,-2.72451266367875e-09,-2.719522713745273e-09,-2.714532763811795e-09,-2.7095428138783174e-09,-2.70455286394484e-09,-2.6995629140113624e-09,-2.6945729640778847e-09,-2.6895830141444074e-09,-2.6845930642109297e-09,-2.679603114277452e-09,-2.6746131643439747e-09,-2.669623214410497e-09,-2.6646332644770193e-09,-2.659643314543542e-09,-2.6546533646100643e-09,-2.6496634146765866e-09,-2.6446734647431093e-09,-2.6396835148096316e-09,-2.634693564876154e-09,-2.6297036149426766e-09,-2.624713665009199e-09,-2.619723715075721e-09,-2.614733765142244e-09,-2.609743815208766e-09,-2.6047538652752885e-09,-2.599763915341811e-09,-2.5947739654083335e-09,-2.5897840154748558e-09,-2.5847940655413785e-09,-2.5798041156079008e-09,-2.5748141656744235e-09,-2.5698242157409458e-09,-2.564834265807468e-09,-2.5598443158739908e-09,-2.554854365940513e-09,-2.5498644160070354e-09,-2.544874466073558e-09,-2.5398845161400804e-09,-2.5348945662066027e-09,-2.5299046162731254e-09,-2.5249146663396477e-09,-2.51992471640617e-09,-2.5149347664726927e-09,-2.509944816539215e-09,-2.5049548666057373e-09,-2.49996491667226e-09,-2.4949749667387823e-09,-2.4899850168053045e-09,-2.4849950668718273e-09,-2.4800051169383495e-09,-2.475015167004872e-09,-2.4700252170713946e-09,-2.465035267137917e-09,-2.460045317204439e-09,-2.455055367270962e-09,-2.450065417337484e-09,-2.4450754674040064e-09,-2.440085517470529e-09,-2.4350955675370514e-09,-2.4301056176035737e-09,-2.4251156676700964e-09,-2.4201257177366187e-09,-2.415135767803141e-09,-2.4101458178696637e-09,-2.405155867936186e-09,-2.4001659180027087e-09,-2.395175968069231e-09,-2.3901860181357533e-09,-2.385196068202276e-09,-2.3802061182687983e-09,-2.3752161683353206e-09,-2.3702262184018433e-09,-2.3652362684683656e-09,-2.360246318534888e-09,-2.3552563686014106e-09,-2.350266418667933e-09,-2.3452764687344552e-09,-2.340286518800978e-09,-2.3352965688675002e-09,-2.3303066189340225e-09,-2.3253166690005452e-09,-2.3203267190670675e-09,-2.31533676913359e-09,-2.3103468192001125e-09,-2.305356869266635e-09,-2.300366919333157e-09,-2.29537696939968e-09,-2.290387019466202e-09,-2.2853970695327244e-09,-2.280407119599247e-09,-2.2754171696657694e-09,-2.2704272197322917e-09,-2.2654372697988144e-09,-2.2604473198653367e-09,-2.2554573699318594e-09,-2.2504674199983817e-09,-2.245477470064904e-09,-2.2404875201314267e-09,-2.235497570197949e-09,-2.2305076202644713e-09,-2.225517670330994e-09,-2.2205277203975163e-09,-2.2155377704640386e-09,-2.2105478205305613e-09,-2.2055578705970836e-09,-2.200567920663606e-09,-2.1955779707301286e-09,-2.190588020796651e-09,-2.185598070863173e-09,-2.180608120929696e-09,-2.175618170996218e-09,-2.1706282210627405e-09,-2.165638271129263e-09,-2.1606483211957855e-09,-2.1556583712623078e-09,-2.1506684213288305e-09,-2.1456784713953528e-09,-2.140688521461875e-09,-2.1356985715283978e-09,-2.13070862159492e-09,-2.1257186716614424e-09,-2.120728721727965e-09,-2.1157387717944874e-09,-2.1107488218610096e-09,-2.1057588719275324e-09,-2.1007689219940547e-09,-2.095778972060577e-09,-2.0907890221270997e-09,-2.085799072193622e-09,-2.0808091222601447e-09,-2.075819172326667e-09,-2.0708292223931892e-09,-2.065839272459712e-09,-2.0608493225262342e-09,-2.0558593725927565e-09,-2.0508694226592792e-09,-2.0458794727258015e-09,-2.040889522792324e-09,-2.0358995728588465e-09,-2.030909622925369e-09,-2.025919672991891e-09,-2.020929723058414e-09,-2.015939773124936e-09,-2.0109498231914584e-09,-2.005959873257981e-09,-2.0009699233245034e-09,-1.9959799733910257e-09,-1.9909900234575484e-09,-1.9860000735240707e-09,-1.981010123590593e-09,-1.9760201736571157e-09,-1.971030223723638e-09,-1.9660402737901603e-09,-1.961050323856683e-09,-1.9560603739232053e-09,-1.9510704239897276e-09,-1.9460804740562503e-09,-1.9410905241227726e-09,-1.9361005741892953e-09,-1.9311106242558176e-09,-1.92612067432234e-09,-1.9211307243888626e-09,-1.916140774455385e-09,-1.911150824521907e-09,-1.90616087458843e-09,-1.901170924654952e-09,-1.8961809747214745e-09,-1.891191024787997e-09,-1.8862010748545195e-09,-1.8812111249210418e-09,-1.8762211749875645e-09,-1.871231225054087e-09,-1.866241275120609e-09,-1.8612513251871318e-09,-1.856261375253654e-09,-1.8512714253201764e-09,-1.846281475386699e-09,-1.8412915254532214e-09,-1.8363015755197437e-09,-1.8313116255862664e-09,-1.8263216756527887e-09,-1.821331725719311e-09,-1.8163417757858337e-09,-1.811351825852356e-09,-1.8063618759188783e-09,-1.801371925985401e-09,-1.7963819760519233e-09,-1.7913920261184456e-09,-1.7864020761849683e-09,-1.7814121262514906e-09,-1.7764221763180129e-09,-1.7714322263845356e-09,-1.7664422764510579e-09,-1.7614523265175806e-09,-1.7564623765841029e-09,-1.7514724266506252e-09,-1.7464824767171479e-09,-1.7414925267836702e-09,-1.7365025768501925e-09,-1.7315126269167152e-09,-1.7265226769832375e-09,-1.7215327270497598e-09,-1.7165427771162825e-09,-1.7115528271828048e-09,-1.706562877249327e-09,-1.7015729273158498e-09,-1.696582977382372e-09,-1.6915930274488943e-09,-1.686603077515417e-09,-1.6816131275819393e-09,-1.6766231776484616e-09,-1.6716332277149843e-09,-1.6666432777815066e-09,-1.661653327848029e-09,-1.6566633779145516e-09,-1.651673427981074e-09,-1.6466834780475962e-09,-1.641693528114119e-09,-1.6367035781806412e-09,-1.6317136282471635e-09,-1.6267236783136862e-09,-1.6217337283802085e-09,-1.6167437784467312e-09,-1.6117538285132535e-09,-1.6067638785797758e-09,-1.6017739286462985e-09,-1.5967839787128208e-09,-1.5917940287793431e-09,-1.5868040788458658e-09,-1.5818141289123881e-09,-1.5768241789789104e-09,-1.5718342290454331e-09,-1.5668442791119554e-09,-1.5618543291784777e-09,-1.5568643792450004e-09,-1.5518744293115227e-09,-1.546884479378045e-09,-1.5418945294445677e-09,-1.53690457951109e-09,-1.5319146295776123e-09,-1.526924679644135e-09,-1.5219347297106573e-09,-1.5169447797771796e-09,-1.5119548298437023e-09,-1.5069648799102246e-09,-1.5019749299767469e-09,-1.4969849800432696e-09,-1.4919950301097919e-09,-1.4870050801763142e-09,-1.4820151302428369e-09,-1.4770251803093592e-09,-1.4720352303758815e-09,-1.4670452804424042e-09,-1.4620553305089265e-09,-1.4570653805754488e-09,-1.4520754306419715e-09,-1.4470854807084938e-09,-1.4420955307750165e-09,-1.4371055808415388e-09,-1.432115630908061e-09,-1.4271256809745838e-09,-1.422135731041106e-09,-1.4171457811076284e-09,-1.412155831174151e-09,-1.4071658812406734e-09,-1.4021759313071957e-09,-1.3971859813737184e-09,-1.3921960314402407e-09,-1.387206081506763e-09,-1.3822161315732857e-09,-1.377226181639808e-09,-1.3722362317063303e-09,-1.367246281772853e-09,-1.3622563318393753e-09,-1.3572663819058976e-09,-1.3522764319724203e-09,-1.3472864820389426e-09,-1.3422965321054649e-09,-1.3373065821719876e-09,-1.3323166322385099e-09,-1.3273266823050321e-09,-1.3223367323715549e-09,-1.3173467824380771e-09,-1.3123568325045994e-09,-1.3073668825711222e-09,-1.3023769326376444e-09,-1.2973869827041672e-09,-1.2923970327706894e-09,-1.2874070828372117e-09,-1.2824171329037344e-09,-1.2774271829702567e-09,-1.272437233036779e-09,-1.2674472831033017e-09,-1.262457333169824e-09,-1.2574673832363463e-09,-1.252477433302869e-09,-1.2474874833693913e-09,-1.2424975334359136e-09,-1.2375075835024363e-09,-1.2325176335689586e-09,-1.227527683635481e-09,-1.2225377337020036e-09,-1.217547783768526e-09,-1.2125578338350482e-09,-1.207567883901571e-09,-1.2025779339680932e-09,-1.1975879840346155e-09,-1.1925980341011382e-09,-1.1876080841676605e-09,-1.1826181342341828e-09,-1.1776281843007055e-09,-1.1726382343672278e-09,-1.1676482844337501e-09,-1.1626583345002728e-09,-1.1576683845667955e-09,-1.1526784346333174e-09,-1.1476884846998401e-09,-1.1426985347663628e-09,-1.1377085848328847e-09,-1.1327186348994074e-09,-1.1277286849659301e-09,-1.122738735032452e-09,-1.1177487850989747e-09,-1.1127588351654974e-09,-1.1077688852320193e-09,-1.102778935298542e-09,-1.0977889853650647e-09,-1.0927990354315866e-09,-1.0878090854981093e-09,-1.082819135564632e-09,-1.0778291856311539e-09,-1.0728392356976766e-09,-1.0678492857641993e-09,-1.0628593358307212e-09,-1.0578693858972439e-09,-1.0528794359637666e-09,-1.0478894860302885e-09,-1.0428995360968112e-09,-1.0379095861633339e-09,-1.0329196362298558e-09,-1.0279296862963785e-09,-1.0229397363629012e-09,-1.017949786429423e-09,-1.0129598364959458e-09,-1.0079698865624685e-09,-1.0029799366289904e-09,-9.97989986695513e-10,-9.930000367620358e-10,-9.880100868285577e-10,-9.830201368950804e-10,-9.78030186961603e-10,-9.73040237028125e-10,-9.680502870946477e-10,-9.630603371611704e-10,-9.580703872276922e-10,-9.53080437294215e-10,-9.480904873607377e-10,-9.431005374272595e-10,-9.381105874937822e-10,-9.33120637560305e-10,-9.281306876268268e-10,-9.231407376933495e-10,-9.181507877598723e-10,-9.131608378263941e-10,-9.081708878929168e-10,-9.031809379594395e-10,-8.981909880259623e-10,-8.932010380924841e-10,-8.882110881590068e-10,-8.832211382255296e-10,-8.782311882920514e-10,-8.732412383585741e-10,-8.682512884250968e-10,-8.632613384916187e-10,-8.582713885581414e-10,-8.532814386246641e-10,-8.48291488691186e-10,-8.433015387577087e-10,-8.383115888242314e-10,-8.333216388907533e-10,-8.28331688957276e-10,-8.233417390237987e-10,-8.183517890903206e-10,-8.133618391568433e-10,-8.08371889223366e-10,-8.033819392898879e-10,-7.983919893564106e-10,-7.934020394229333e-10,-7.884120894894552e-10,-7.834221395559779e-10,-7.784321896225006e-10,-7.734422396890225e-10,-7.684522897555452e-10,-7.634623398220679e-10,-7.584723898885898e-10,-7.534824399551125e-10,-7.484924900216352e-10,-7.435025400881571e-10,-7.385125901546798e-10,-7.335226402212025e-10,-7.285326902877244e-10,-7.235427403542471e-10,-7.185527904207698e-10,-7.135628404872917e-10,-7.085728905538144e-10,-7.035829406203371e-10,-6.98592990686859e-10,-6.936030407533817e-10,-6.886130908199044e-10,-6.836231408864263e-10,-6.78633190952949e-10,-6.736432410194717e-10,-6.686532910859936e-10,-6.636633411525163e-10,-6.58673391219039e-10,-6.536834412855609e-10,-6.486934913520836e-10,-6.437035414186063e-10,-6.387135914851282e-10,-6.337236415516509e-10,-6.287336916181736e-10,-6.237437416846955e-10,-6.187537917512182e-10,-6.137638418177409e-10,-6.087738918842628e-10,-6.037839419507855e-10,-5.987939920173082e-10,-5.9380404208383e-10,-5.888140921503528e-10,-5.838241422168755e-10,-5.788341922833973e-10,-5.738442423499201e-10,-5.688542924164428e-10,-5.638643424829655e-10,-5.588743925494874e-10,-5.538844426160101e-10,-5.488944926825328e-10,-5.439045427490546e-10,-5.389145928155774e-10,-5.339246428821001e-10,-5.289346929486219e-10,-5.239447430151446e-10,-5.189547930816674e-10,-5.139648431481892e-10,-5.089748932147119e-10,-5.039849432812347e-10,-4.989949933477565e-10,-4.940050434142792e-10,-4.89015093480802e-10,-4.840251435473238e-10,-4.790351936138465e-10,-4.740452436803692e-10,-4.690552937468911e-10,-4.6406534381341383e-10,-4.5907539387993654e-10,-4.540854439464584e-10,-4.4909549401298113e-10,-4.4410554407950384e-10,-4.391155941460257e-10,-4.341256442125484e-10,-4.2913569427907113e-10,-4.24145744345593e-10,-4.191557944121157e-10,-4.1416584447863843e-10,-4.091758945451603e-10,-4.04185944611683e-10,-3.991959946782057e-10,-3.942060447447276e-10,-3.892160948112503e-10,-3.84226144877773e-10,-3.792361949442949e-10,-3.742462450108176e-10,-3.692562950773403e-10,-3.642663451438622e-10,-3.592763952103849e-10,-3.542864452769076e-10,-3.492964953434295e-10,-3.443065454099522e-10,-3.393165954764749e-10,-3.343266455429968e-10,-3.293366956095195e-10,-3.243467456760422e-10,-3.193567957425641e-10,-3.143668458090868e-10,-3.093768958756095e-10,-3.043869459421314e-10,-2.993969960086541e-10,-2.944070460751768e-10,-2.8941709614169867e-10,-2.844271462082214e-10,-2.794371962747441e-10,-2.7444724634126597e-10,-2.694572964077887e-10,-2.644673464743114e-10,-2.594773965408341e-10,-2.5448744660735597e-10,-2.494974966738787e-10,-2.445075467404014e-10,-2.3951759680692327e-10,-2.34527646873446e-10,-2.2953769693996868e-10,-2.2454774700649056e-10,-2.1955779707301327e-10,-2.1456784713953598e-10,-2.0957789720605786e-10,-2.0458794727258057e-10,-1.9959799733910328e-10,-1.9460804740562516e-10,-1.8961809747214786e-10,-1.8462814753867057e-10,-1.7963819760519245e-10,-1.7464824767171516e-10,-1.6965829773823787e-10,-1.6466834780475975e-10,-1.5967839787128245e-10,-1.5468844793780516e-10,-1.4969849800432704e-10,-1.4470854807084975e-10,-1.3971859813737246e-10,-1.3472864820389434e-10,-1.2973869827041705e-10,-1.2474874833693975e-10,-1.1975879840346163e-10,-1.1476884846998434e-10,-1.0977889853650705e-10,-1.0478894860302893e-10,-9.979899866955164e-11,-9.480904873607435e-11,-8.981909880259623e-11,-8.482914886911893e-11,-7.983919893564164e-11,-7.484924900216352e-11,-6.985929906868623e-11,-6.486934913520894e-11,-5.987939920173082e-11,-5.4889449268253525e-11,-4.989949933477623e-11,-4.490954940129811e-11,-3.991959946782082e-11,-3.492964953434353e-11,-2.993969960086541e-11,-2.4949749667388116e-11,-1.9959799733910824e-11,-1.4969849800432704e-11,-9.979899866955412e-12,-4.9899499334781195e-12,0.0,4.989949933477292e-12,9.979899866954585e-12,1.4969849800432704e-11,1.9959799733909997e-11,2.494974966738729e-11,2.993969960086541e-11,3.49296495343427e-11,3.9919599467819993e-11,4.490954940129811e-11,4.9899499334775405e-11,5.48894492682527e-11,5.987939920173082e-11,6.486934913520811e-11,6.98592990686854e-11,7.48492490021627e-11,7.983919893564081e-11,8.48291488691181e-11,8.98190988025954e-11,9.480904873607352e-11,9.979899866955081e-11,1.047889486030281e-10,1.0977889853650622e-10,1.1476884846998351e-10,1.197587984034608e-10,1.2474874833693893e-10,1.2973869827041622e-10,1.347286482038935e-10,1.3971859813737163e-10,1.4470854807084892e-10,1.4969849800432622e-10,1.5468844793780434e-10,1.5967839787128163e-10,1.6466834780475892e-10,1.6965829773823704e-10,1.7464824767171433e-10,1.7963819760519162e-10,1.8462814753866974e-10,1.8961809747214704e-10,1.9460804740562433e-10,1.9959799733910245e-10,2.0458794727257974e-10,2.0957789720605703e-10,2.1456784713953515e-10,2.1955779707301244e-10,2.2454774700648974e-10,2.2953769693996786e-10,2.3452764687344515e-10,2.3951759680692244e-10,2.4450754674040056e-10,2.4949749667387785e-10,2.5448744660735515e-10,2.5947739654083327e-10,2.6446734647431056e-10,2.6945729640778785e-10,2.7444724634126597e-10,2.7943719627474326e-10,2.8442714620822055e-10,2.8941709614169867e-10,2.9440704607517597e-10,2.9939699600865326e-10,3.043869459421314e-10,3.0937689587560867e-10,3.1436684580908596e-10,3.193567957425641e-10,3.243467456760414e-10,3.2933669560951867e-10,3.343266455429968e-10,3.393165954764741e-10,3.4430654540995137e-10,3.492964953434295e-10,3.542864452769068e-10,3.592763952103841e-10,3.642663451438622e-10,3.692562950773395e-10,3.742462450108168e-10,3.7923619494429407e-10,3.842261448777722e-10,3.892160948112495e-10,3.942060447447268e-10,3.991959946782049e-10,4.041859446116822e-10,4.091758945451595e-10,4.141658444786376e-10,4.191557944121149e-10,4.241457443455922e-10,4.291356942790703e-10,4.341256442125476e-10,4.391155941460249e-10,4.44105544079503e-10,4.490954940129803e-10,4.540854439464576e-10,4.590753938799357e-10,4.64065343813413e-10,4.690552937468903e-10,4.740452436803684e-10,4.790351936138457e-10,4.84025143547323e-10,4.890150934808011e-10,4.940050434142784e-10,4.989949933477557e-10,5.039849432812338e-10,5.089748932147111e-10,5.139648431481884e-10,5.189547930816665e-10,5.239447430151438e-10,5.289346929486211e-10,5.339246428820992e-10,5.389145928155765e-10,5.439045427490538e-10,5.488944926825319e-10,5.538844426160092e-10,5.588743925494865e-10,5.638643424829646e-10,5.688542924164419e-10,5.738442423499192e-10,5.788341922833973e-10,5.838241422168746e-10,5.888140921503519e-10,5.9380404208383e-10,5.987939920173073e-10,6.037839419507846e-10,6.087738918842628e-10,6.1376384181774e-10,6.187537917512173e-10,6.237437416846955e-10,6.287336916181728e-10,6.3372364155165e-10,6.387135914851282e-10,6.437035414186055e-10,6.486934913520827e-10,6.536834412855609e-10,6.586733912190382e-10,6.636633411525155e-10,6.686532910859936e-10,6.736432410194709e-10,6.786331909529482e-10,6.836231408864263e-10,6.886130908199036e-10,6.936030407533809e-10,6.98592990686859e-10,7.035829406203363e-10,7.085728905538136e-10,7.135628404872909e-10,7.18552790420769e-10,7.235427403542463e-10,7.285326902877236e-10,7.335226402212017e-10,7.38512590154679e-10,7.435025400881563e-10,7.484924900216344e-10,7.534824399551117e-10,7.58472389888589e-10,7.634623398220671e-10,7.684522897555444e-10,7.734422396890217e-10,7.784321896224998e-10,7.834221395559771e-10,7.884120894894544e-10,7.934020394229325e-10,7.983919893564098e-10,8.033819392898871e-10,8.083718892233652e-10,8.133618391568425e-10,8.183517890903198e-10,8.233417390237979e-10,8.283316889572752e-10,8.333216388907525e-10,8.383115888242306e-10,8.433015387577079e-10,8.482914886911852e-10,8.532814386246633e-10,8.582713885581406e-10,8.632613384916179e-10,8.68251288425096e-10,8.732412383585733e-10,8.782311882920506e-10,8.832211382255287e-10,8.88211088159006e-10,8.932010380924833e-10,8.981909880259614e-10,9.031809379594387e-10,9.08170887892916e-10,9.131608378263941e-10,9.181507877598714e-10,9.231407376933487e-10,9.281306876268268e-10,9.331206375603041e-10,9.381105874937814e-10,9.431005374272595e-10,9.480904873607368e-10,9.530804372942141e-10,9.580703872276922e-10,9.630603371611695e-10,9.680502870946468e-10,9.73040237028125e-10,9.780301869616022e-10,9.830201368950795e-10,9.880100868285577e-10,9.93000036762035e-10,9.979899866955122e-10,1.0029799366289904e-09,1.0079698865624677e-09,1.012959836495945e-09,1.0179497864294222e-09,1.0229397363629004e-09,1.0279296862963776e-09,1.032919636229855e-09,1.037909586163333e-09,1.0428995360968104e-09,1.0478894860302876e-09,1.0528794359637658e-09,1.057869385897243e-09,1.0628593358307203e-09,1.0678492857641985e-09,1.0728392356976758e-09,1.077829185631153e-09,1.0828191355646312e-09,1.0878090854981085e-09,1.0927990354315858e-09,1.0977889853650639e-09,1.1027789352985412e-09,1.1077688852320185e-09,1.1127588351654966e-09,1.1177487850989739e-09,1.1227387350324512e-09,1.1277286849659293e-09,1.1327186348994066e-09,1.1377085848328839e-09,1.142698534766362e-09,1.1476884846998393e-09,1.1526784346333166e-09,1.1576683845667947e-09,1.162658334500272e-09,1.1676482844337493e-09,1.1726382343672274e-09,1.1776281843007047e-09,1.182618134234182e-09,1.18760808416766e-09,1.1925980341011374e-09,1.1975879840346147e-09,1.2025779339680928e-09,1.20756788390157e-09,1.2125578338350474e-09,1.2175477837685255e-09,1.2225377337020028e-09,1.22752768363548e-09,1.2325176335689582e-09,1.2375075835024355e-09,1.2424975334359128e-09,1.247487483369391e-09,1.2524774333028682e-09,1.2574673832363455e-09,1.2624573331698236e-09,1.267447283103301e-09,1.2724372330367782e-09,1.2774271829702563e-09,1.2824171329037336e-09,1.287407082837211e-09,1.292397032770689e-09,1.2973869827041663e-09,1.3023769326376436e-09,1.3073668825711217e-09,1.312356832504599e-09,1.3173467824380763e-09,1.3223367323715544e-09,1.3273266823050317e-09,1.332316632238509e-09,1.3373065821719871e-09,1.3422965321054644e-09,1.3472864820389417e-09,1.352276431972419e-09,1.3572663819058971e-09,1.3622563318393744e-09,1.3672462817728517e-09,1.3722362317063298e-09,1.3772261816398071e-09,1.3822161315732844e-09,1.3872060815067626e-09,1.3921960314402398e-09,1.3971859813737171e-09,1.4021759313071953e-09,1.4071658812406725e-09,1.4121558311741498e-09,1.417145781107628e-09,1.4221357310411053e-09,1.4271256809745825e-09,1.4321156309080607e-09,1.437105580841538e-09,1.4420955307750152e-09,1.4470854807084934e-09,1.4520754306419707e-09,1.457065380575448e-09,1.462055330508926e-09,1.4670452804424034e-09,1.4720352303758807e-09,1.4770251803093588e-09,1.482015130242836e-09,1.4870050801763134e-09,1.4919950301097915e-09,1.4969849800432688e-09,1.501974929976746e-09,1.5069648799102242e-09,1.5119548298437015e-09,1.5169447797771788e-09,1.5219347297106569e-09,1.5269246796441342e-09,1.5319146295776115e-09,1.5369045795110896e-09,1.5418945294445669e-09,1.5468844793780442e-09,1.5518744293115223e-09,1.5568643792449996e-09,1.5618543291784769e-09,1.566844279111955e-09,1.5718342290454323e-09,1.5768241789789096e-09,1.5818141289123877e-09,1.586804078845865e-09,1.5917940287793423e-09,1.5967839787128204e-09,1.6017739286462977e-09,1.606763878579775e-09,1.6117538285132531e-09,1.6167437784467304e-09,1.6217337283802077e-09,1.6267236783136858e-09,1.6317136282471631e-09,1.6367035781806404e-09,1.6416935281141185e-09,1.6466834780475958e-09,1.6516734279810731e-09,1.6566633779145504e-09,1.6616533278480285e-09,1.6666432777815058e-09,1.6716332277149831e-09,1.6766231776484612e-09,1.6816131275819385e-09,1.6866030775154158e-09,1.691593027448894e-09,1.6965829773823712e-09,1.7015729273158485e-09,1.7065628772493266e-09,1.711552827182804e-09,1.7165427771162812e-09,1.7215327270497593e-09,1.7265226769832366e-09,1.731512626916714e-09,1.736502576850192e-09,1.7414925267836693e-09,1.7464824767171466e-09,1.7514724266506247e-09,1.756462376584102e-09,1.7614523265175793e-09,1.7664422764510575e-09,1.7714322263845347e-09,1.776422176318012e-09,1.7814121262514902e-09,1.7864020761849674e-09,1.7913920261184447e-09,1.7963819760519229e-09,1.8013719259854002e-09,1.8063618759188774e-09,1.8113518258523556e-09,1.8163417757858329e-09,1.8213317257193101e-09,1.8263216756527883e-09,1.8313116255862656e-09,1.8363015755197429e-09,1.841291525453221e-09,1.8462814753866983e-09,1.8512714253201756e-09,1.8562613752536537e-09,1.861251325187131e-09,1.8662412751206083e-09,1.8712312250540864e-09,1.8762211749875637e-09,1.881211124921041e-09,1.886201074854519e-09,1.8911910247879964e-09,1.8961809747214737e-09,1.9011709246549518e-09,1.906160874588429e-09,1.9111508245219064e-09,1.9161407744553845e-09,1.9211307243888618e-09,1.926120674322339e-09,1.931110624255817e-09,1.9361005741892945e-09,1.9410905241227718e-09,1.94608047405625e-09,1.951070423989727e-09,1.9560603739232045e-09,1.9610503238566826e-09,1.96604027379016e-09,1.971030223723637e-09,1.9760201736571153e-09,1.9810101235905926e-09,1.98600007352407e-09,1.990990023457547e-09,1.9959799733910253e-09,2.0009699233245026e-09,2.00595987325798e-09,2.010949823191458e-09,2.0159397731249353e-09,2.0209297230584126e-09,2.0259196729918907e-09,2.030909622925368e-09,2.0358995728588453e-09,2.0408895227923234e-09,2.0458794727258007e-09,2.050869422659278e-09,2.055859372592756e-09,2.0608493225262334e-09,2.0658392724597107e-09,2.070829222393189e-09,2.075819172326666e-09,2.0808091222601434e-09,2.0857990721936215e-09,2.090789022127099e-09,2.095778972060576e-09,2.1007689219940542e-09,2.1057588719275315e-09,2.110748821861009e-09,2.115738771794487e-09,2.1207287217279642e-09,2.1257186716614415e-09,2.1307086215949196e-09,2.135698571528397e-09,2.1406885214618742e-09,2.1456784713953523e-09,2.1506684213288296e-09,2.155658371262307e-09,2.160648321195785e-09,2.1656382711292623e-09,2.1706282210627396e-09,2.1756181709962178e-09,2.180608120929695e-09,2.1855980708631723e-09,2.1905880207966505e-09,2.1955779707301278e-09,2.200567920663605e-09,2.205557870597083e-09,2.2105478205305605e-09,2.2155377704640378e-09,2.220527720397516e-09,2.225517670330993e-09,2.2305076202644705e-09,2.2354975701979486e-09,2.240487520131426e-09,2.245477470064903e-09,2.2504674199983813e-09,2.2554573699318586e-09,2.260447319865336e-09,2.265437269798814e-09,2.2704272197322913e-09,2.2754171696657686e-09,2.2804071195992467e-09,2.285397069532724e-09,2.2903870194662013e-09,2.2953769693996786e-09,2.3003669193331567e-09,2.305356869266634e-09,2.3103468192001113e-09,2.3153367691335894e-09,2.3203267190670667e-09,2.325316669000544e-09,2.330306618934022e-09,2.3352965688674994e-09,2.3402865188009767e-09,2.345276468734455e-09,2.350266418667932e-09,2.3552563686014094e-09,2.3602463185348875e-09,2.365236268468365e-09,2.370226218401842e-09,2.37521616833532e-09,2.3802061182687975e-09,2.3851960682022748e-09,2.390186018135753e-09,2.39517596806923e-09,2.4001659180027075e-09,2.4051558679361856e-09,2.410145817869663e-09,2.41513576780314e-09,2.4201257177366183e-09,2.4251156676700956e-09,2.430105617603573e-09,2.435095567537051e-09,2.4400855174705283e-09,2.4450754674040056e-09,2.4500654173374837e-09,2.455055367270961e-09,2.4600453172044383e-09,2.4650352671379164e-09,2.4700252170713937e-09,2.475015167004871e-09,2.480005116938349e-09,2.4849950668718264e-09,2.4899850168053037e-09,2.494974966738782e-09,2.499964916672259e-09,2.5049548666057364e-09,2.5099448165392145e-09,2.514934766472692e-09,2.519924716406169e-09,2.5249146663396472e-09,2.5299046162731245e-09,2.534894566206602e-09,2.53988451614008e-09,2.5448744660735572e-09,2.5498644160070345e-09,2.5548543659405127e-09,2.55984431587399e-09,2.5648342658074672e-09,2.5698242157409454e-09,2.574814165674422e-09,2.5798041156079e-09,2.584794065541378e-09,2.5897840154748545e-09,2.5947739654083327e-09,2.5997639153418108e-09,2.6047538652752872e-09,2.6097438152087654e-09,2.6147337651422435e-09,2.61972371507572e-09,2.624713665009198e-09,2.629703614942676e-09,2.6346935648761526e-09,2.6396835148096308e-09,2.644673464743109e-09,2.6496634146765853e-09,2.6546533646100635e-09,2.6596433145435416e-09,2.664633264477018e-09,2.669623214410496e-09,2.6746131643439743e-09,2.6796031142774508e-09,2.684593064210929e-09,2.689583014144407e-09,2.6945729640778835e-09,2.6995629140113616e-09,2.7045528639448397e-09,2.709542813878316e-09,2.7145327638117943e-09,2.7195227137452724e-09,2.724512663678749e-09,2.729502613612227e-09,2.734492563545705e-09,2.7394825134791816e-09,2.7444724634126597e-09,2.749462413346138e-09,2.7544523632796143e-09,2.7594423132130924e-09,2.7644322631465705e-09,2.769422213080047e-09,2.774412163013525e-09,2.7794021129470032e-09,2.7843920628804797e-09,2.789382012813958e-09,2.794371962747436e-09,2.7993619126809124e-09,2.8043518626143905e-09,2.8093418125478686e-09,2.814331762481345e-09,2.8193217124148232e-09,2.8243116623483013e-09,2.829301612281778e-09,2.834291562215256e-09,2.839281512148734e-09,2.8442714620822105e-09,2.8492614120156886e-09,2.8542513619491667e-09,2.8592413118826432e-09,2.8642312618161213e-09,2.8692212117495994e-09,2.874211161683076e-09,2.879201111616554e-09,2.884191061550032e-09,2.8891810114835086e-09,2.8941709614169867e-09,2.899160911350465e-09,2.9041508612839413e-09,2.9091408112174194e-09,2.9141307611508976e-09,2.919120711084374e-09,2.924110661017852e-09,2.9291006109513303e-09,2.9340905608848067e-09,2.939080510818285e-09,2.944070460751763e-09,2.9490604106852394e-09,2.9540503606187176e-09,2.9590403105521957e-09,2.964030260485672e-09,2.9690202104191503e-09,2.9740101603526284e-09,2.979000110286105e-09,2.983990060219583e-09,2.988980010153061e-09,2.9939699600865375e-09,2.9989599100200157e-09,3.0039498599534938e-09,3.0089398098869703e-09,3.0139297598204484e-09,3.0189197097539265e-09,3.023909659687403e-09,3.028899609620881e-09,3.033889559554359e-09,3.0388795094878357e-09,3.0438694594213138e-09,3.048859409354792e-09,3.0538493592882684e-09,3.0588393092217465e-09,3.0638292591552246e-09,3.068819209088701e-09,3.073809159022179e-09,3.0787991089556573e-09,3.0837890588891338e-09,3.088779008822612e-09,3.0937689587560884e-09,3.0987589086895665e-09,3.1037488586230446e-09,3.108738808556521e-09,3.113728758489999e-09,3.1187187084234773e-09,3.1237086583569538e-09,3.128698608290432e-09,3.13368855822391e-09,3.1386785081573865e-09,3.1436684580908646e-09,3.1486584080243427e-09,3.153648357957819e-09,3.1586383078912973e-09,3.1636282578247754e-09,3.168618207758252e-09,3.17360815769173e-09,3.178598107625208e-09,3.1835880575586846e-09,3.1885780074921627e-09,3.193567957425641e-09,3.1985579073591173e-09,3.2035478572925954e-09,3.2085378072260735e-09,3.21352775715955e-09,3.218517707093028e-09,3.2235076570265062e-09,3.2284976069599827e-09,3.233487556893461e-09,3.238477506826939e-09,3.2434674567604154e-09,3.2484574066938935e-09,3.2534473566273716e-09,3.258437306560848e-09,3.2634272564943262e-09,3.2684172064278043e-09,3.273407156361281e-09,3.278397106294759e-09,3.283387056228237e-09,3.2883770061617135e-09,3.2933669560951916e-09,3.2983569060286698e-09,3.3033468559621462e-09,3.3083368058956243e-09,3.3133267558291025e-09,3.318316705762579e-09,3.323306655696057e-09,3.328296605629535e-09,3.3332865555630116e-09,3.3382765054964897e-09,3.343266455429968e-09,3.3482564053634443e-09,3.3532463552969224e-09,3.3582363052304006e-09,3.363226255163877e-09,3.368216205097355e-09,3.3732061550308333e-09,3.3781961049643097e-09,3.383186054897788e-09,3.388176004831266e-09,3.3931659547647424e-09,3.3981559046982206e-09,3.4031458546316987e-09,3.408135804565175e-09,3.4131257544986533e-09,3.4181157044321314e-09,3.423105654365608e-09,3.428095604299086e-09,3.433085554232564e-09,3.4380755041660406e-09,3.4430654540995187e-09,3.448055404032997e-09,3.4530453539664733e-09,3.4580353038999514e-09,3.4630252538334295e-09,3.468015203766906e-09,3.473005153700384e-09,3.477995103633862e-09,3.4829850535673387e-09,3.4879750035008168e-09,3.492964953434295e-09,3.4979549033677714e-09,3.5029448533012495e-09,3.5079348032347276e-09,3.512924753168204e-09,3.517914703101682e-09,3.5229046530351603e-09,3.5278946029686368e-09,3.532884552902115e-09,3.537874502835593e-09,3.5428644527690695e-09,3.5478544027025476e-09,3.5528443526360257e-09,3.557834302569502e-09,3.5628242525029803e-09,3.5678142024364584e-09,3.572804152369935e-09,3.577794102303413e-09,3.582784052236891e-09,3.5877740021703676e-09,3.5927639521038457e-09,3.597753902037324e-09,3.6027438519708003e-09,3.6077338019042784e-09,3.6127237518377565e-09,3.617713701771233e-09,3.622703651704711e-09,3.6276936016381892e-09,3.6326835515716657e-09,3.637673501505144e-09,3.642663451438622e-09,3.6476534013720984e-09,3.6526433513055765e-09,3.6576333012390547e-09,3.662623251172531e-09,3.6676132011060092e-09,3.6726031510394874e-09,3.677593100972964e-09,3.682583050906442e-09,3.68757300083992e-09,3.6925629507733965e-09,3.6975529007068746e-09,3.7025428506403528e-09,3.7075328005738292e-09,3.7125227505073074e-09,3.7175127004407855e-09,3.722502650374262e-09,3.72749260030774e-09,3.732482550241218e-09,3.737472500174695e-09,3.742462450108173e-09,3.747452400041649e-09,3.752442349975127e-09,3.7574322999086055e-09,3.762422249842082e-09,3.76741219977556e-09,3.772402149709038e-09,3.777392099642515e-09,3.782382049575993e-09,3.787371999509471e-09,3.792361949442947e-09,3.7973518993764255e-09,3.8023418493099036e-09,3.80733179924338e-09,3.812321749176858e-09,3.817311699110336e-09,3.822301649043813e-09,3.827291598977291e-09,3.832281548910769e-09,3.8372714988442455e-09,3.8422614487777236e-09,3.847251398711202e-09,3.852241348644678e-09,3.857231298578156e-09,3.862221248511634e-09,3.867211198445111e-09,3.872201148378589e-09,3.877191098312067e-09,3.8821810482455436e-09,3.887170998179022e-09,3.8921609481125e-09,3.897150898045976e-09,3.902140847979454e-09,3.9071307979129325e-09,3.912120747846409e-09,3.917110697779887e-09,3.922100647713365e-09,3.927090597646842e-09,3.93208054758032e-09,3.937070497513798e-09,3.942060447447274e-09,3.9470503973807525e-09,3.952040347314231e-09,3.957030297247707e-09,3.962020247181185e-09,3.967010197114663e-09,3.97200014704814e-09,3.976990096981618e-09,3.981980046915096e-09,3.9869699968485725e-09,3.991959946782051e-09,3.996949896715529e-09,4.001939846649005e-09,4.006929796582483e-09,4.0119197465159614e-09,4.016909696449438e-09,4.021899646382916e-09,4.026889596316394e-09,4.031879546249871e-09,4.036869496183349e-09,4.041859446116827e-09,4.046849396050303e-09,4.0518393459837814e-09,4.0568292959172596e-09,4.061819245850736e-09,4.066809195784214e-09,4.071799145717692e-09,4.076789095651169e-09,4.081779045584647e-09,4.086768995518125e-09,4.0917589454516014e-09,4.0967488953850795e-09,4.101738845318558e-09,4.106728795252034e-09,4.111718745185512e-09,4.11670869511899e-09,4.121698645052467e-09,4.126688594985945e-09,4.131678544919423e-09,4.1366684948528995e-09,4.141658444786378e-09,4.146648394719856e-09,4.151638344653332e-09,4.15662829458681e-09,4.1616182445202885e-09,4.166608194453765e-09,4.171598144387243e-09,4.176588094320721e-09,4.181578044254198e-09,4.186567994187676e-09,4.191557944121154e-09,4.19654789405463e-09,4.2015378439881085e-09,4.206527793921587e-09,4.211517743855063e-09,4.216507693788541e-09,4.221497643722019e-09,4.226487593655496e-09,4.231477543588974e-09,4.236467493522452e-09,4.2414574434559285e-09,4.2464473933894066e-09,4.251437343322885e-09,4.256427293256361e-09,4.261417243189839e-09,4.266407193123317e-09,4.271397143056794e-09,4.276387092990272e-09,4.28137704292375e-09,4.2863669928572266e-09,4.291356942790705e-09,4.296346892724183e-09,4.301336842657659e-09,4.306326792591137e-09,4.3113167425246155e-09,4.316306692458092e-09,4.32129664239157e-09,4.326286592325048e-09,4.331276542258525e-09,4.336266492192003e-09,4.341256442125481e-09,4.346246392058957e-09,4.3512363419924355e-09,4.356226291925914e-09,4.36121624185939e-09,4.366206191792868e-09,4.371196141726345e-09,4.376186091659823e-09,4.381176041593301e-09,4.386165991526777e-09,4.3911559414602555e-09,4.396145891393734e-09,4.40113584132721e-09,4.406125791260688e-09,4.411115741194166e-09,4.416105691127643e-09,4.421095641061121e-09,4.426085590994599e-09,4.4310755409280755e-09,4.436065490861554e-09,4.441055440795032e-09,4.446045390728508e-09,4.451035340661986e-09,4.4560252905954644e-09,4.461015240528941e-09,4.466005190462419e-09,4.470995140395897e-09,4.475985090329374e-09,4.480975040262852e-09,4.48596499019633e-09,4.490954940129806e-09,4.4959448900632844e-09,4.5009348399967626e-09,4.505924789930239e-09,4.510914739863717e-09,4.515904689797195e-09,4.520894639730672e-09,4.52588458966415e-09,4.530874539597628e-09,4.5358644895311044e-09,4.5408544394645826e-09,4.545844389398061e-09,4.550834339331537e-09,4.555824289265015e-09,4.560814239198493e-09,4.56580418913197e-09,4.570794139065448e-09,4.575784088998926e-09,4.5807740389324025e-09,4.585763988865881e-09,4.590753938799359e-09,4.595743888732835e-09,4.600733838666313e-09,4.6057237885997915e-09,4.610713738533268e-09,4.615703688466746e-09,4.620693638400224e-09,4.625683588333701e-09,4.630673538267179e-09,4.635663488200657e-09,4.640653438134133e-09,4.6456433880676115e-09,4.65063333800109e-09,4.655623287934566e-09,4.660613237868044e-09,4.665603187801522e-09,4.670593137734999e-09,4.675583087668477e-09,4.680573037601955e-09,4.6855629875354315e-09,4.69055293746891e-09,4.695542887402388e-09,4.700532837335864e-09,4.705522787269342e-09,4.7105127372028204e-09,4.715502687136297e-09,4.720492637069775e-09,4.725482587003253e-09,4.73047253693673e-09,4.735462486870208e-09,4.740452436803686e-09,4.745442386737162e-09,4.75043233667064e-09,4.7554222866041185e-09,4.760412236537595e-09,4.765402186471073e-09,4.770392136404551e-09,4.775382086338028e-09,4.780372036271506e-09,4.785361986204984e-09,4.79035193613846e-09,4.7953418860719385e-09,4.800331836005417e-09,4.805321785938893e-09,4.810311735872371e-09,4.815301685805849e-09,4.820291635739326e-09,4.825281585672804e-09,4.830271535606282e-09,4.8352614855397585e-09,4.840251435473237e-09,4.845241385406715e-09,4.850231335340191e-09,4.855221285273669e-09,4.8602112352071475e-09,4.865201185140624e-09,4.870191135074102e-09,4.87518108500758e-09,4.880171034941057e-09,4.885160984874535e-09,4.890150934808013e-09
2.7694915005980922e-05,2.7697064552879022e-05,2.7703513527165184e-05,2.7714262929666726e-05,2.7729314428601515e-05,2.7748670359836417e-05,2.7772333727249338e-05,2.7800308203194646e-05,2.7832598129072235e-05,2.786920851600031e-05,2.7910145045591855e-05,2.7955414070835046e-05,2.8005022617077696e-05,2.805897838311589e-05,2.8117289742386976e-05,2.8179965744267033e-05,2.8247016115473155e-05,2.8318451261570614e-05,2.839428226858527e-05,2.847452090472138e-05,2.855917962218508e-05,2.8648271559113867e-05,2.8741810541612444e-05,2.8839811085894912e-05,2.894228840053411e-05,2.9049258388818262e-05,2.9160737651214886e-05,2.9276743487943048e-05,2.939729390165408e-05,2.952240760022073e-05,2.9652103999635885e-05,2.9786403227020884e-05,2.9925326123743898e-05,3.0068894248649086e-05,3.0217129881396947e-05,3.0370056025915843e-05,3.052769641396648e-05,3.069007550881831e-05,3.0857218509039746e-05,3.102915135240214e-05,3.120590071989813e-05,3.1387494039875154e-05,3.157395949228459e-05,3.176532601304765e-05,3.1961623298537676e-05,3.216288181018075e-05,3.236913277917469e-05,3.258040821132661e-05,3.279674089201166e-05,3.301816439125092e-05,3.324471306891193e-05,3.347642208003096e-05,3.3713327380258496e-05,3.3955465731428564e-05,3.420287470725304e-05,3.445559269914137e-05,3.4713658922146844e-05,3.4977113421040674e-05,3.524599707651407e-05,3.552035161150969e-05,3.580021959768384e-05,3.608564446199944e-05,3.637667049345198e-05,3.667334284992738e-05,3.697570756519702e-05,3.728381155604496e-05,3.7597702629534124e-05,3.791742949040939e-05,3.8243041748639484e-05,3.857458992709862e-05,3.891212546939013e-05,3.925570074781161e-05,3.9605369071464285e-05,3.9961184694506534e-05,4.032320282455478e-05,4.069147963122973e-05,4.10660722548541e-05,4.144703881529751e-05,4.1834438420974824e-05,4.22283311779964e-05,4.262877819947317e-05,4.3035841614975746e-05,4.3449584580153304e-05,4.3870071286508155e-05,4.429736697133241e-05,4.473153792780515e-05,4.5172651515253125e-05,4.562077616957598e-05,4.607598141383806e-05,4.653833786902786e-05,4.700791726498636e-05,4.748479245150875e-05,4.796903740961632e-05,4.846072726300483e-05,4.895993828966918e-05,4.946674793370532e-05,4.99812348172931e-05,5.050347875286039e-05,5.103356075543144e-05,5.157156305516011e-05,5.211756911005118e-05,5.2671663618871075e-05,5.323393253424966e-05,5.3804463075975835e-05,5.438334374448835e-05,5.497066433456384e-05,5.556651594920604e-05,5.617099101373418e-05,5.678418329007771e-05,5.7406187891275474e-05,5.8037101296183945e-05,5.867702136439604e-05,5.93260473513723e-05,5.998427992378753e-05,6.065182117509468e-05,6.132877464130906e-05,6.201524531701427e-05,6.27113396715927e-05,6.341716566568434e-05,6.413283276787357e-05,6.485845197160994e-05,6.559413581236187e-05,6.633999838500991e-05,6.709615536147859e-05,6.786272400861049e-05,6.863982320628812e-05,6.942757346580193e-05,7.022609694847005e-05,7.103551748451168e-05,7.185596059217817e-05,7.268755349714226e-05,7.353042515215115e-05,7.438470625694499e-05,7.525052927844274e-05,7.612802847120148e-05,7.701733989815003e-05,7.791860145159866e-05,7.883195287453315e-05,7.975753578219209e-05,8.069549368392813e-05,8.164597200536686e-05,8.260911811085459e-05,8.35850813262065e-05,8.457401296175501e-05,8.557606633570343e-05,8.659139679778645e-05,8.762016175324522e-05,8.866252068711498e-05,8.971863518883191e-05,9.078866897716643e-05,9.187278792547857e-05,9.297116008730566e-05,9.408395572228521e-05,9.52113473224147e-05,9.635350963865458e-05,9.751061970787502e-05,9.868285688015794e-05,9.98704028464475e-05,0.00010107344166656267,0.00010229215979757283,0.00010352674612253806,0.00010477739197962388,0.00010604429119158932,0.00010732764009565459,0.00010862763757375811,0.00010994448508319719,0.00011127838668766629,0.0001126295490886914,0.00011399818165747144,0.00011538449646712203,0.00011678870832533847,0.00011821103480747152,0.00011965169629002863,0.00012111091598460283,0.00012258891997223354,0.00012408593723820595,0.00012560219970729348,0.0001271379422794506,0.00012869340286595493,0.00013026882242601507,0.00013186444500383793,0.00013348051776616838,0.00013511729104030568,0.0001367750183525997,0.0001384539564674366,0.0001401543654267158,0.0001418765085898262,0.0001436206526741308,0.0001453870677959548,0.00014717602751210124,0.00014898780886188088,0.00015082269240967623,0.0001526809622880411,0.00015456290624134227,0.0001564688156699478,0.00015839898567497588,0.00016035371510360002,0.00016233330659492536,0.00016433806662644328,0.00016636830556106342,0.0001684243376947372,0.0001705064813046816,0.00017261505869819896,0.00017475039626211372,0.00017691282451282403,0.00017910267814698344,0.00018132029609280504,0.00018356602156202183,0.00018584020210247985,0.0001881431896513966,0.0001904753405892809,0.00019283701579452282,0.00019522858069866614,0.00019765040534236444,0.00020010286443204018,0.00020258633739723687,0.00020510120844869872,0.00020764786663715772,0.00021022670591285716,0.00021283812518581614,0.0002154825283868348,0.00021816032452925968,0.00022087192777151405,0.00022361775748040344,0.00022639823829520035,0.00022921380019252813,0.00023206487855204202,0.00023495191422292274,0.0002378753535911967,0.0002408356486478808,0.00024383325705796803,0.0002468686422302734,0.00024994227338812964,0.0002530546256409622,0.00025620618005674,0.0002593974237353256,0.00026262884988271894,0.00026590095788622304,0.0002692142533905285,0.00027256924837473583,0.0002759664612303216,0.000279406416840064,0.0002828896466579357,0.0002864166887899771,0.00028998808807616385,0.0002936043961732703,0.0002972661716387571,0.0003009739800156805,0.0003047283939186391,0.0003085299931207777,0.00031237936464185013,0.00031627710283736076,0.0003202238094887922,0.0003242200938949396,0.0003282665729643483,0.000332363871308893,0.00033651262133848746,0.0003407134633569553,0.00034496704565905754,0.00034927402462871346,0.00035363506483840844,0.00035805083914981165,0.00036252202881562013,0.00036704932358263496,0.00037163342179608836,0.00037627503050524446,0.0003809748655702692,0.0003857336517704073,0.00039055212291345595,0.0003954310219465734,0.00040037110106843504,0.0004053731218427236,0.00041043785531300883,0.00041556608211901653,0.00042075859261428135,0.0004260161869852474,0.0004313396753717776,0.00043672987798913274,0.0004421876252514139,0.00044771375789649185,0.000453309127112432,0.00045897459466545475,0.00046471103302941745,0.0004705193255168584,0.00047640036641160926,0.00048235506110300776,0.0004883843262217015,0.0004944890897770926,0.0005006702912964232,0.0005069288819655185,0.0005132658247712212,0.0005196820946455164,0.0005261786786113904,0.0005327565759304066,0.0005394167982520749,0.0005461603697649575,0.0005529883273496088,0.0005599017207333131,0.000566901612646672,0.0005739890789820409,0.0005811652089538557,0.0005884311052608512,0.00059578788425021,0.0006032366760836432,0.0006107786249054463,0.0006184148890125373,0.0006261466410264925,0.0006339750680676325,0.0006419013719311432,0.000649926769265274,0.0006580524917516436,0.0006662797862876426,0.0006746099151710135,0.0006830441562865634,0.0006915838032950814,0.0007002301658244694,0.0007089845696631151,0.0007178483569554988,0.0007268228864001295,0.0007359095334497507,0.0007451096905138984,0.00075442476716382,0.0007638561903397747,0.0007734054045607387,0.0007830738721365398,0.000792863073382489,0.0008027745068364406,0.0008128096894784121,0.0008229701569527287,0.0008332574637927185,0.0008436731836480204,0.0008542189095145135,0.0008648962539668598,0.0008757068493937593,0.000886652348235885,0.0008977344232265537,0.0009089547676351437,0.0009203150955133154,0.000931817141944023,0.0009434626632933851,0.0009552534374654226,0.0009671912641596842,0.0009792779651318123,0.0009915153844570629,0.001003905388796818,0.0010164498676680969,0.0010291507337161366,0.0010420099229900347,0.0010550293952214984,0.0010682111341067423,0.001081557147591549,0.0010950694681595096,0.0011087501531235327,0.001122601284920575,0.001136624971409689,0.001150823346173374,0.001165198568822307,0.0011797528253034415,0.0011944883282115197,0.0012094073171040577,0.0012245120588197916,0.0012398048478006658,0.0012552880064173144,0.0012709638852981978,0.001286834863662289,0.0013029033496554426,0.0013191717806904193,0.0013356426237906413,0.001352318375937682,0.0013692015644225278,0.0013862947472006756,0.0014036005132510407,0.0014211214829387836,0.0014388603083820095,0.001456819673822436,0.0014750022960000515,0.0014934109245317547,0.0015120483422940644,0.0015309173658099155,0.0015500208456395554,0.0015693616667755918,0.001588942749042243,0.001608767047498772,0.0016288375528472033,0.0016491572918443257,0.0016697293277179678,0.001690556760587704,0.0017116427278898822,0.0017329904048070989,0.0017546030047021427,0.0017764837795563914,0.0017986360204127702,0.0018210630578232524,0.0018437682623009318,0.0018667550447767382,0.0018900268570608172,0.0019135871923085697,0.0019374395854914427,0.001961587613872467,0.001986034897486573,0.002010785099625727,0.002035841927328935,0.002061209131877146,0.0020868905092929846,0.002112889900845567,0.002139211193560152,0.0021658583207329342,0.0021928352624507705,0.0022201460461160213,0.002247794746976523,0.0022757854886606135,0.002304122443717369,0.002332809834162034,0.002361851932026629,0.00239125305991581,0.0024210175915680247,0.0024511499524219236,0.0024816546201881493,0.002512536125426381,0.0025437990521278704,0.00257544803830326,0.0026074877765759163,0.0026399230147806296,0.0026727585565678343,0.002705999262013309,0.002739650048233341,0.002773715890005463,0.0028082018203947562,0.00284311293138565,0.0028784543745193785,0.002914231361536978,0.0029504491650279587,0.0029871131190845395,0.0030242286199616245,0.003061801126742332,0.003099836162009257,0.0031383393125214015,0.0031773162298968215,0.0032167726313009097,0.0032567143001404,0.00329714708676321,0.003338076909163744,0.0033795097536941866,0.0034214516757813504,0.0034639088006492786,0.0035068873240476145,0.0035503935129856555,0.0035944337064720737,0.0036390143162604804,0.003684141827600554,0.003729822799994905,0.0037760638679616592,0.0038228717418027076,0.0038702532083775124,0.003918215131882718,0.003966764454637234,0.004015908197872984,0.004065653462531257,0.004116007430064536,0.004166977363243977,0.0042185706069722195,0.004270794589101829,0.004323656821259069,0.004377164899673136,0.0044313265060107136,0.004486149408215808,0.004541641461355022,0.004597810608467846,0.004654664881422383,0.004712212401775851,0.004770461381640579,0.004829420124554693,0.004889097026358003,0.004949500576072541,0.005010639356788216,0.005072522046552964,0.005135157419267776,0.005198554345586264,0.005262721793818826,0.005327668830841087,0.005393404623007008,0.005459938437065962,0.0055272796410842555,0.0055954377053705,0.005664422203405211,0.00573424281277413,0.005804909316105341,0.005876431602010112,0.005948819666027259,0.006022083611570873,0.006096233650881425,0.0061712801059800836,0.006247233409625844,0.006324104106275869,0.006401902853048372,0.006480640420688154,0.006560327694534618,0.006640975675492109,0.006722595481002281,0.006805198346018613,0.0068887956239825346,0.006973398787801307,0.007059019430827271,0.0071456692678383785,0.007233360136019789,0.0073221039959462525,0.0074119129325652755,0.0075027991561806414,0.007594775003436115,0.007687852938299342,0.007782045553045286,0.007877365569239477,0.007973825838720304,0.008071439344580565,0.008170219202147826,0.008270178659963164,0.008371331100758422,0.00847369004243136,0.008577269139018613,0.008682082181666,0.008788143099596211,0.00889546596107323,0.009004064974363327,0.009113954488692406,0.009225148995199241,0.009337663127884404,0.009451511664554395,0.009566709527760939,0.009683271785734547,0.009801213653312789,0.009920550492862164,0.010041297815193561,0.010163471280471091,0.010287086699113612,0.010412160032688241,0.01053870739479703,0.010666745051953811,0.010796289424453317,0.010927357087230825,0.01105996477071183,0.011194129361652231,0.011329867903967642,0.01146719759955178,0.011606135809083706,0.011746700052823123,0.011888908011393216,0.012032777526551016,0.012178326601944196,0.012325573403854378,0.012474536261926128,0.012625233669881194,0.012777684286217415,0.0129319069348923,0.01308792060598962,0.01324574445637001,0.01340539781030364,0.013566900160085263,0.013730271166630963,0.013895530660055685,0.014062698640231342,0.014231795277325023,0.01440284091231633,0.014575856057493536,0.014750861396928043,0.014927877786926294,0.01510692625645892,0.015288028007566018,0.015471204415738628,0.015656477030275097,0.015843867574612255,0.01603339794663052,0.016225090218932443,0.01641896663909407,0.016615049629888235,0.01681336178947965,0.017013925891590714,0.017216764885637736,0.017421901896836584,0.017629360226277493,0.017839163350968412,0.018051334923845565,0.018265898773751645,0.018482878905380258,0.018702299499186066,0.01892418491126038,0.019148559673171084,0.019375448491766614,0.019604876248943196,0.01983686800137466,0.020071448980204496,0.020308644590699178,0.020548480411862163,0.02079098219600828,0.02103617586829777,0.02128408752622889,0.02153474343908928,0.021788170047364892,0.02204439396210619,0.02230344196425081,0.022565341003902756,0.022830118199566065,0.023097800837334544,0.023368416370035113,0.02364199241632534,0.02391855675974395,0.024198137347714792,0.024480762290502438,0.02476645986011976,0.0250552584891875,0.02534718676974363,0.025642273452004226,0.025940547443073735,0.02624203780560495,0.026546773756408588,0.026854784665011247,0.027166100052162086,0.02748074958828774,0.02779876309189482,0.02812017052792028,0.028445002006028577,0.028773287778856523,0.029105058240204252,0.02944034392317309,0.02977917549824978,0.03012158377133693,0.030467599681729313,0.030817254300036696,0.031170578826051735,0.03152760458656476,0.031888363033123326,0.03225288573973807,0.032621204400534856,0.0329933508273518,0.03336935694728327,0.03374925480016943,0.03413307653603217,0.0345208544124576,0.0349126207919254,0.03530840813908447,0.03570824901797659,0.036112176089207214,0.0365202221070638,0.03693241991658361,0.037348802450568555,0.037769402726551014,0.0381942538437077,0.03862338897972517,0.03905684138761497,0.039494644392481015,0.03993683138823848,0.04038343583428604,0.04083449125213071,0.041290031221967886,0.04175008937921577,0.04221469941100601,0.04268389505263084,0.04315771008394838,0.043636178325745824,0.04411933363606302,0.044607209906476514,0.04509984105834493,0.04559726103901773,0.046099503818007814,0.046606603383129185,0.04711859373660123,0.04763550889112056,0.04815738286590178,0.04868424968268875,0.0492161433617375,0.04975309791777187,0.05029514735591411,0.0508423256675915,0.05139466682641983,0.05195220478406657,0.052514973466094614,0.053083006767787405,0.053656338549959,0.054235002634748876,0.054819032801403926,0.05540846278204975,0.05600332625745179,0.05660365685276984,0.05720948813330548,0.0578208536002463,0.058437786686407964,0.05906032075197488,0.05968848908024343,0.06032232487336786,0.060961861248111544,0.06160713123160536,0.06225816775711522,0.06291500365982051,0.06357767167260497,0.06424620442186321,0.0649206344233233,0.06560099407788848,0.0662873156674991,0.06697963135101806,0.06767797316013964,0.06838237299532562,0.06909286262176993,0.06980947366539318,0.07053223760886987,0.07126118578768967,0.07199634938625502,0.0727377594340166,0.07348544680164858,0.07423944219726608,0.07499977616268558,0.07576647906973141,0.07653958111658887,0.07731911232420649,0.07810510253274934,0.078897581398104,0.07969657838843858,0.08050212278081754,0.08131424365787429,0.08213296990454291,0.08295833020485,0.08379035303876894,0.0846290666791365,0.08547449918863605,0.08632667841684522,0.08718563199735255,0.08805138734494193,0.08892397165284792,0.08980341189008179,0.09068973479883026,0.09158296689192778,0.09248313445040336,0.09339026352110236,0.094304379914386,0.0952255092019067,0.09615367671446293,0.09708890753993184,0.09803122652128263,0.09898065825466898,0.09993722708760323,0.10090095711721199,0.1018718721885727,0.10284999589313307,0.1038353515672136,0.10482796229059216,0.10582785088517153,0.10683503991373143,0.10784955167876274,0.10887140822138557,0.10990063132035077,0.11093724249112508,0.11198126298505859,0.11303271378863593,0.11409161562281021,0.11515798894241895,0.11623185393568211,0.11731323052378224,0.11840213836052509,0.11949859683208114,0.12060262505680737,0.12171424188514757,0.12283346589961192,0.12396031541483443,0.1250948084777071,0.12623696286759026,0.12738679609659856,0.12854432540996105,0.12970956778645457,0.13088253993890928,0.13206325831478588,0.1332517390968224,0.13444799820374986,0.1356520512910763,0.13686391375193635,0.13808360071800646,0.13931112706048404,0.14054650739112887,0.14178975606336564,0.14304088717344654,0.1442999145616718,0.14556685181366694,0.14684171226171625,0.14812450898614896,0.14941525481677845,0.1507139623343925,0.1520206438722919,0.1533353115178778,0.15465797711428433,0.15598865226205627,0.1573273483208695,0.1586740764112926,0.1600288474165885,0.16139167198455395,0.16276256052939553,0.16414152323364078,0.16552857005008223,0.16692371070375317,0.1683269546939337,0.16973831129618497,0.17115778956441038,0.1725853983329419,0.17402114621865036,0.17546504162307755,0.17691709273458917,0.17837730753054679,0.17984569377949702,0.18132225904337745,0.18280701067973623,0.1842999558439655,0.1858011014915462,0.18731045438030294,0.1888280210726683,0.1903538079379538,0.19188782115462774,0.1934300667125975,0.19498055041549542,0.19653927788296693,0.19810625455295985,0.19968148568401323,0.2012649763575451,0.20285673148013758,0.20445675578581837,0.20606505383833748,0.20768163003343823,0.20930648860112142,0.21093963360790177,0.21258106895905543,0.21423079840085812,0.2158888255228121,0.21755515375986237,0.2192297863946001,0.22091272655945324,0.2226039772388629,0.2243035412714458,0.2260114213521407,0.22772762003433933,0.2294521397320006,0.23118498272174756,0.2329261511449466,0.23467564700976856,0.23643347219323035,0.23819962844321826,0.23997411738049046,0.24175694050066032,0.2435480991761582,0.24534759465817307,0.2471554280785726,0.2489716004518015,0.2507961126767582,0.2526289655386499,0.254470159710824,0.25631969575657865,0.25817757413094955,0.2600437951824743,0.2619183591549337,0.26380126618907024,0.265692516324283,0.26759210950030005,0.26950004555882723,0.2714163242451738,0.27334094520985497,0.27527390801017093,0.2772152121117636,0.2791648568901497,0.28112284163223056,0.2830891655377802,0.2850638277209095,0.28704682721150854,0.2890381629566663,0.2910378338220678,0.2930458385933697,0.29506217597755374,0.2970868446042579,0.29911984302708716,0.3011611697249025,0.3032108231030883,0.30526880149480023,0.3073351031621912,0.3094097262976184,0.3114926690248294,0.31358392940012886,0.31568350541352597,0.3177913949898628,0.31990759598992335,0.32203210621152495,0.32416492339059044,0.3263060452022031,0.32845546926164426,0.3306131931254126,0.3327792142922281,0.33495353020401747,0.33713613824688504,0.33932703575206674,0.34152621999686866,0.34373368820559075,0.3459494375504344,0.348173465152397,0.3504057680821508,0.35264634336090883,0.35489518796127656,0.35715229880809013,0.3594176727792424,0.36169130670649563,0.3639731973762816,0.36626334153049095,0.3685617358672492,0.3708683770416828,0.3731832616666729,0.37550638631359906,0.37783774751307253,0.3801773417556588,0.382525165492591,0.38488121513647267,0.3872454870619723,0.3896179776065085,0.3919986830709258,0.39438759972016263,0.3967847237839113,0.39919005145726894,0.4016035789013821,0.4040253022440829,0.4064552175805183,0.4088933209737727,0.4113396084554834,0.4137940760264498,0.41625671965723615,0.4187275352887687,0.4212065188329266,0.42369366617312665,0.42618897316490517,0.42869243563649023,0.43120404938937373,0.43372381019887496,0.4362517138147016,0.43878775596150515,0.44133193233943313,0.4438842386246758,0.44644467047000996,0.4490132235053388,0.45158989333822785,0.4541746755544376,0.4567675657184521,0.45936855937400595,0.46197765204460645,0.4645948392340534,0.46722011642695677,0.4698534790892506,0.4724949226687047,0.4751444425954343,0.47780203428240625,0.48046769312594434,0.483141414506231,0.4858231937878077,0.4885130263200733,0.4912109074377805,0.4939168324615292,0.49663079669826077,0.4993527954417479,0.5020828239730832,0.504820877561169,0.5075669514632014,0.5103210409251557,0.5130831411822704,0.5158532474595275,0.5186313549721346,0.5214174589260036,0.5242115545182281,0.5270136369375616,0.5298237013648921,0.5326417429737171,0.5354677569306168,0.5383017383957269,0.5411436825232094,0.5439935844617229,0.5468514393548921,0.5497172423417761,0.5525909885573351,0.555472673132897,0.5583622911966226,0.5612598378739699,0.564165308288157,0.5670786975606255,0.5700000000000003,0.5670786975606255,0.564165308288157,0.5612598378739699,0.5583622911966226,0.555472673132897,0.5525909885573351,0.5497172423417761,0.5468514393548921,0.5439935844617229,0.5411436825232094,0.5383017383957269,0.5354677569306168,0.5326417429737171,0.5298237013648921,0.5270136369375616,0.5242115545182281,0.5214174589260036,0.5186313549721346,0.5158532474595275,0.5130831411822704,0.5103210409251557,0.5075669514632014,0.504820877561169,0.5020828239730832,0.4993527954417479,0.49663079669826077,0.4939168324615292,0.4912109074377805,0.4885130263200733,0.4858231937878077,0.483141414506231,0.48046769312594434,0.47780203428240625,0.4751444425954343,0.4724949226687047,0.4698534790892506,0.46722011642695677,0.4645948392340534,0.46197765204460645,0.45936855937400595,0.4567675657184521,0.4541746755544376,0.45158989333822785,0.4490132235053388,0.44644467047000996,0.4438842386246758,0.44133193233943313,0.43878775596150515,0.4362517138147016,0.43372381019887496,0.43120404938937373,0.42869243563649023,0.42618897316490517,0.42369366617312665,0.4212065188329266,0.4187275352887687,0.41625671965723615,0.4137940760264498,0.4113396084554834,0.4088933209737727,0.4064552175805183,0.4040253022440829,0.4016035789013821,0.39919005145726894,0.3967847237839113,0.39438759972016263,0.3919986830709258,0.3896179776065085,0.3872454870619723,0.38488121513647267,0.382525165492591,0.3801773417556588,0.37783774751307253,0.37550638631359906,0.3731832616666729,0.3708683770416828,0.3685617358672492,0.36626334153049095,0.3639731973762816,0.36169130670649563,0.3594176727792424,0.35715229880809013,0.35489518796127656,0.35264634336090883,0.3504057680821508,0.348173465152397,0.3459494375504344,0.34373368820559075,0.34152621999686866,0.33932703575206674,0.33713613824688504,0.33495353020401747,0.3327792142922281,0.3306131931254126,0.32845546926164426,0.3263060452022031,0.32416492339059044,0.32203210621152495,0.31990759598992335,0.3177913949898628,0.31568350541352597,0.31358392940012886,0.3114926690248294,0.3094097262976184,0.3073351031621912,0.30526880149480023,0.3032108231030883,0.3011611697249025,0.29911984302708716,0.2970868446042579,0.29506217597755374,0.2930458385933697,0.2910378338220678,0.2890381629566663,0.28704682721150854,0.2850638277209095,0.2830891655377802,0.28112284163223056,0.2791648568901497,0.2772152121117636,0.27527390801017093,0.27334094520985497,0.2714163242451738,0.26950004555882723,0.26759210950030005,0.265692516324283,0.26380126618907024,0.2619183591549337,0.2600437951824743,0.25817757413094955,0.25631969575657865,0.254470159710824,0.2526289655386499,0.2507961126767582,0.2489716004518015,0.2471554280785726,0.24534759465817307,0.2435480991761582,0.24175694050066032,0.23997411738049046,0.23819962844321826,0.23643347219323035,0.23467564700976856,0.2329261511449466,0.23118498272174756,0.2294521397320006,0.22772762003433933,0.2260114213521407,0.2243035412714458,0.2226039772388629,0.22091272655945324,0.2192297863946001,0.21755515375986237,0.2158888255228121,0.21423079840085812,0.21258106895905543,0.21093963360790177,0.20930648860112142,0.20768163003343823,0.20606505383833748,0.20445675578581837,0.20285673148013758,0.2012649763575451,0.19968148568401323,0.19810625455295985,0.19653927788296693,0.19498055041549542,0.1934300667125975,0.19188782115462774,0.1903538079379538,0.1888280210726683,0.18731045438030294,0.1858011014915462,0.1842999558439655,0.18280701067973623,0.18132225904337745,0.17984569377949702,0.17837730753054679,0.17691709273458917,0.17546504162307755,0.17402114621865036,0.1725853983329419,0.17115778956441038,0.16973831129618497,0.1683269546939337,0.16692371070375317,0.16552857005008223,0.16414152323364078,0.16276256052939553,0.16139167198455395,0.1600288474165885,0.1586740764112926,0.1573273483208695,0.15598865226205627,0.15465797711428433,0.1533353115178778,0.1520206438722919,0.1507139623343925,0.14941525481677845,0.14812450898614896,0.14684171226171625,0.14556685181366694,0.1442999145616718,0.14304088717344654,0.14178975606336564,0.14054650739112887,0.13931112706048404,0.13808360071800646,0.13686391375193635,0.1356520512910763,0.13444799820374986,0.1332517390968224,0.13206325831478588,0.13088253993890928,0.12970956778645457,0.12854432540996105,0.12738679609659856,0.12623696286759026,0.1250948084777071,0.12396031541483443,0.12283346589961192,0.12171424188514757,0.12060262505680737,0.11949859683208114,0.11840213836052509,0.11731323052378224,0.11623185393568211,0.11515798894241895,0.11409161562281021,0.11303271378863593,0.11198126298505859,0.11093724249112508,0.10990063132035077,0.10887140822138557,0.10784955167876274,0.10683503991373143,0.10582785088517153,0.10482796229059216,0.1038353515672136,0.10284999589313307,0.1018718721885727,0.10090095711721199,0.09993722708760323,0.09898065825466898,0.09803122652128263,0.09708890753993184,0.09615367671446293,0.0952255092019067,0.094304379914386,0.09339026352110236,0.09248313445040336,0.09158296689192778,0.09068973479883026,0.08980341189008179,0.08892397165284792,0.08805138734494193,0.08718563199735255,0.08632667841684522,0.08547449918863605,0.0846290666791365,0.08379035303876894,0.08295833020485,0.08213296990454291,0.08131424365787429,0.08050212278081754,0.07969657838843858,0.078897581398104,0.07810510253274934,0.07731911232420649,0.07653958111658887,0.07576647906973141,0.07499977616268558,0.07423944219726608,0.07348544680164858,0.0727377594340166,0.07199634938625502,0.07126118578768967,0.07053223760886987,0.06980947366539318,0.06909286262176993,0.06838237299532562,0.06767797316013964,0.06697963135101806,0.0662873156674991,0.06560099407788848,0.0649206344233233,0.06424620442186321,0.06357767167260497,0.06291500365982051,0.06225816775711522,0.06160713123160536,0.060961861248111544,0.06032232487336786,0.05968848908024343,0.05906032075197488,0.058437786686407964,0.0578208536002463,0.05720948813330548,0.05660365685276984,0.05600332625745179,0.05540846278204975,0.054819032801403926,0.054235002634748876,0.053656338549959,0.053083006767787405,0.052514973466094614,0.05195220478406657,0.05139466682641983,0.0508423256675915,0.05029514735591411,0.04975309791777187,0.0492161433617375,0.04868424968268875,0.04815738286590178,0.04763550889112056,0.04711859373660123,0.046606603383129185,0.046099503818007814,0.04559726103901773,0.04509984105834493,0.044607209906476514,0.04411933363606302,0.043636178325745824,0.04315771008394838,0.04268389505263084,0.04221469941100601,0.04175008937921577,0.041290031221967886,0.04083449125213071,0.04038343583428604,0.03993683138823848,0.039494644392481015,0.03905684138761497,0.03862338897972517,0.0381942538437077,0.037769402726551014,0.037348802450568555,0.03693241991658361,0.0365202221070638,0.036112176089207214,0.03570824901797659,0.03530840813908447,0.0349126207919254,0.0345208544124576,0.03413307653603217,0.03374925480016943,0.03336935694728327,0.0329933508273518,0.032621204400534856,0.03225288573973807,0.031888363033123326,0.03152760458656476,0.031170578826051735,0.030817254300036696,0.030467599681729313,0.03012158377133693,0.02977917549824978,0.02944034392317309,0.029105058240204252,0.028773287778856523,0.028445002006028577,0.02812017052792028,0.02779876309189482,0.02748074958828774,0.027166100052162086,0.026854784665011247,0.026546773756408588,0.02624203780560495,0.025940547443073735,0.025642273452004226,0.02534718676974363,0.0250552584891875,0.02476645986011976,0.024480762290502438,0.024198137347714792,0.02391855675974395,0.02364199241632534,0.023368416370035113,0.023097800837334544,0.022830118199566065,0.022565341003902756,0.02230344196425081,0.02204439396210619,0.021788170047364892,0.02153474343908928,0.02128408752622889,0.02103617586829777,0.02079098219600828,0.020548480411862163,0.020308644590699178,0.020071448980204496,0.01983686800137466,0.019604876248943196,0.019375448491766614,0.019148559673171084,0.01892418491126038,0.018702299499186066,0.018482878905380258,0.018265898773751645,0.018051334923845565,0.017839163350968412,0.017629360226277493,0.017421901896836584,0.017216764885637736,0.017013925891590714,0.01681336178947965,0.016615049629888235,0.01641896663909407,0.016225090218932443,0.01603339794663052,0.015843867574612255,0.015656477030275097,0.015471204415738628,0.015288028007566018,0.01510692625645892,0.014927877786926294,0.014750861396928043,0.014575856057493536,0.01440284091231633,0.014231795277325023,0.014062698640231342,0.013895530660055685,0.013730271166630963,0.013566900160085263,0.01340539781030364,0.01324574445637001,0.01308792060598962,0.0129319069348923,0.012777684286217415,0.012625233669881194,0.012474536261926128,0.012325573403854378,0.012178326601944196,0.012032777526551016,0.011888908011393216,0.011746700052823123,0.011606135809083706,0.01146719759955178,0.011329867903967642,0.011194129361652231,0.01105996477071183,0.010927357087230825,0.010796289424453317,0.010666745051953811,0.01053870739479703,0.010412160032688241,0.010287086699113612,0.010163471280471091,0.010041297815193561,0.009920550492862164,0.009801213653312789,0.009683271785734547,0.009566709527760939,0.009451511664554395,0.009337663127884404,0.009225148995199241,0.009113954488692406,0.009004064974363327,0.00889546596107323,0.008788143099596211,0.008682082181666,0.008577269139018613,0.00847369004243136,0.008371331100758422,0.008270178659963164,0.008170219202147826,0.008071439344580565,0.007973825838720304,0.007877365569239477,0.007782045553045286,0.007687852938299342,0.007594775003436115,0.0075027991561806414,0.0074119129325652755,0.0073221039959462525,0.007233360136019789,0.0071456692678383785,0.007059019430827271,0.006973398787801307,0.0068887956239825346,0.006805198346018613,0.006722595481002281,0.006640975675492109,0.006560327694534618,0.006480640420688154,0.006401902853048372,0.006324104106275869,0.006247233409625844,0.0061712801059800836,0.006096233650881425,0.006022083611570873,0.005948819666027259,0.005876431602010112,0.005804909316105341,0.00573424281277413,0.005664422203405211,0.0055954377053705,0.0055272796410842555,0.005459938437065962,0.005393404623007008,0.005327668830841087,0.005262721793818826,0.005198554345586264,0.005135157419267776,0.005072522046552964,0.005010639356788216,0.004949500576072541,0.004889097026358003,0.004829420124554693,0.004770461381640579,0.004712212401775851,0.004654664881422383,0.004597810608467846,0.004541641461355022,0.004486149408215808,0.0044313265060107136,0.004377164899673136,0.004323656821259069,0.004270794589101829,0.0042185706069722195,0.004166977363243977,0.004116007430064536,0.004065653462531257,0.004015908197872984,0.003966764454637234,0.003918215131882718,0.0038702532083775124,0.0038228717418027076,0.0037760638679616592,0.003729822799994905,0.003684141827600554,0.0036390143162604804,0.0035944337064720737,0.0035503935129856555,0.0035068873240476145,0.0034639088006492786,0.0034214516757813504,0.0033795097536941866,0.003338076909163744,0.00329714708676321,0.0032567143001404,0.0032167726313009097,0.0031773162298968215,0.0031383393125214015,0.003099836162009257,0.003061801126742332,0.0030242286199616245,0.0029871131190845395,0.0029504491650279587,0.002914231361536978,0.0028784543745193785,0.00284311293138565,0.0028082018203947562,0.002773715890005463,0.002739650048233341,0.002705999262013309,0.0026727585565678343,0.0026399230147806296,0.0026074877765759163,0.00257544803830326,0.0025437990521278704,0.002512536125426381,0.0024816546201881493,0.0024511499524219236,0.0024210175915680247,0.00239125305991581,0.002361851932026629,0.002332809834162034,0.002304122443717369,0.0022757854886606135,0.002247794746976523,0.0022201460461160213,0.0021928352624507705,0.0021658583207329342,0.002139211193560152,0.002112889900845567,0.0020868905092929846,0.002061209131877146,0.002035841927328935,0.002010785099625727,0.001986034897486573,0.001961587613872467,0.0019374395854914427,0.0019135871923085697,0.0018900268570608172,0.0018667550447767382,0.0018437682623009318,0.0018210630578232524,0.0017986360204127702,0.0017764837795563914,0.0017546030047021427,0.0017329904048070989,0.0017116427278898822,0.001690556760587704,0.0016697293277179678,0.0016491572918443257,0.0016288375528472033,0.001608767047498772,0.001588942749042243,0.0015693616667755918,0.0015500208456395554,0.0015309173658099155,0.0015120483422940644,0.0014934109245317547,0.0014750022960000515,0.001456819673822436,0.0014388603083820095,0.0014211214829387836,0.0014036005132510407,0.0013862947472006756,0.0013692015644225278,0.001352318375937682,0.0013356426237906413,0.0013191717806904193,0.0013029033496554426,0.001286834863662289,0.0012709638852981978,0.0012552880064173144,0.0012398048478006658,0.0012245120588197916,0.0012094073171040577,0.0011944883282115197,0.0011797528253034415,0.001165198568822307,0.001150823346173374,0.001136624971409689,0.001122601284920575,0.0011087501531235327,0.0010950694681595096,0.001081557147591549,0.0010682111341067423,0.0010550293952214984,0.0010420099229900347,0.0010291507337161366,0.0010164498676680969,0.001003905388796818,0.0009915153844570629,0.0009792779651318123,0.0009671912641596842,0.0009552534374654226,0.0009434626632933851,0.000931817141944023,0.0009203150955133154,0.0009089547676351437,0.0008977344232265537,0.000886652348235885,0.0008757068493937593,0.0008648962539668598,0.0008542189095145135,0.0008436731836480204,0.0008332574637927185,0.0008229701569527287,0.0008128096894784121,0.0008027745068364406,0.000792863073382489,0.0007830738721365398,0.0007734054045607387,0.0007638561903397747,0.00075442476716382,0.0007451096905138984,0.0007359095334497507,0.0007268228864001295,0.0007178483569554988,0.0007089845696631151,0.0007002301658244694,0.0006915838032950814,0.0006830441562865634,0.0006746099151710135,0.0006662797862876426,0.0006580524917516436,0.000649926769265274,0.0006419013719311432,0.0006339750680676325,0.0006261466410264925,0.0006184148890125373,0.0006107786249054463,0.0006032366760836432,0.00059578788425021,0.0005884311052608512,0.0005811652089538557,0.0005739890789820409,0.000566901612646672,0.0005599017207333131,0.0005529883273496088,0.0005461603697649575,0.0005394167982520749,0.0005327565759304066,0.0005261786786113904,0.0005196820946455164,0.0005132658247712212,0.0005069288819655185,0.0005006702912964232,0.0004944890897770926,0.0004883843262217015,0.00048235506110300776,0.00047640036641160926,0.0004705193255168584,0.00046471103302941745,0.00045897459466545475,0.000453309127112432,0.00044771375789649185,0.0004421876252514139,0.00043672987798913274,0.0004313396753717776,0.0004260161869852474,0.00042075859261428135,0.00041556608211901653,0.00041043785531300883,0.0004053731218427236,0.00040037110106843504,0.0003954310219465734,0.00039055212291345595,0.0003857336517704073,0.0003809748655702692,0.00037627503050524446,0.00037163342179608836,0.00036704932358263496,0.00036252202881562013,0.00035805083914981165,0.00035363506483840844,0.00034927402462871346,0.00034496704565905754,0.0003407134633569553,0.00033651262133848746,0.000332363871308893,0.0003282665729643483,0.0003242200938949396,0.0003202238094887922,0.00031627710283736076,0.00031237936464185013,0.0003085299931207777,0.0003047283939186391,0.0003009739800156805,0.0002972661716387571,0.0002936043961732703,0.00028998808807616385,0.0002864166887899771,0.0002828896466579357,0.000279406416840064,0.0002759664612303216,0.00027256924837473583,0.0002692142533905285,0.00026590095788622304,0.00026262884988271894,0.0002593974237353256,0.00025620618005674,0.0002530546256409622,0.00024994227338812964,0.0002468686422302734,0.00024383325705796803,0.0002408356486478808,0.0002378753535911967,0.00023495191422292274,0.00023206487855204202,0.00022921380019252813,0.00022639823829520035,0.00022361775748040344,0.00022087192777151405,0.00021816032452925968,0.0002154825283868348,0.00021283812518581614,0.00021022670591285716,0.00020764786663715772,0.00020510120844869872,0.00020258633739723687,0.00020010286443204018,0.00019765040534236444,0.00019522858069866614,0.00019283701579452282,0.0001904753405892809,0.0001881431896513966,0.00018584020210247985,0.00018356602156202183,0.00018132029609280504,0.00017910267814698344,0.00017691282451282403,0.00017475039626211372,0.00017261505869819896,0.0001705064813046816,0.0001684243376947372,0.00016636830556106342,0.00016433806662644328,0.00016233330659492536,0.00016035371510360002,0.00015839898567497588,0.0001564688156699478,0.00015456290624134227,0.0001526809622880411,0.00015082269240967623,0.00014898780886188088,0.00014717602751210124,0.0001453870677959548,0.0001436206526741308,0.0001418765085898262,0.0001401543654267158,0.0001384539564674366,0.0001367750183525997,0.00013511729104030568,0.00013348051776616838,0.00013186444500383793,0.00013026882242601507,0.00012869340286595493,0.0001271379422794506,0.00012560219970729348,0.00012408593723820595,0.00012258891997223354,0.00012111091598460283,0.00011965169629002863,0.00011821103480747152,0.00011678870832533847,0.00011538449646712203,0.00011399818165747144,0.0001126295490886914,0.00011127838668766629,0.00010994448508319719,0.00010862763757375811,0.00010732764009565459,0.00010604429119158932,0.00010477739197962388,0.00010352674612253806,0.00010229215979757283,0.00010107344166656267,9.98704028464475e-05,9.868285688015794e-05,9.751061970787502e-05,9.635350963865458e-05,9.52113473224147e-05,9.408395572228521e-05,9.297116008730566e-05,9.187278792547857e-05,9.078866897716643e-05,8.971863518883191e-05,8.866252068711498e-05,8.762016175324522e-05,8.659139679778645e-05,8.557606633570343e-05,8.457401296175501e-05,8.35850813262065e-05,8.260911811085459e-05,8.164597200536686e-05,8.069549368392813e-05,7.975753578219209e-05,7.883195287453315e-05,7.791860145159866e-05,7.701733989815003e-05,7.612802847120148e-05,7.525052927844274e-05,7.438470625694499e-05,7.353042515215115e-05,7.268755349714226e-05,7.185596059217817e-05,7.103551748451168e-05,7.022609694847005e-05,6.942757346580193e-05,6.863982320628812e-05,6.786272400861049e-05,6.709615536147859e-05,6.633999838500991e-05,6.559413581236187e-05,6.485845197160994e-05,6.413283276787357e-05,6.341716566568434e-05,6.27113396715927e-05,6.201524531701427e-05,6.132877464130906e-05,6.065182117509468e-05,5.998427992378753e-05,5.93260473513723e-05,5.867702136439604e-05,5.8037101296183945e-05,5.7406187891275474e-05,5.678418329007771e-05,5.617099101373418e-05,5.556651594920604e-05,5.497066433456384e-05,5.438334374448835e-05,5.3804463075975835e-05,5.323393253424966e-05,5.2671663618871075e-05,5.211756911005118e-05,5.157156305516011e-05,5.103356075543144e-05,5.050347875286039e-05,4.99812348172931e-05,4.946674793370532e-05,4.895993828966918e-05,4.846072726300483e-05,4.796903740961632e-05,4.748479245150875e-05,4.700791726498636e-05,4.653833786902786e-05,4.607598141383806e-05,4.562077616957598e-05,4.5172651515253125e-05,4.473153792780515e-05,4.429736697133241e-05,4.3870071286508155e-05,4.3449584580153304e-05,4.3035841614975746e-05,4.262877819947317e-05,4.22283311779964e-05,4.1834438420974824e-05,4.144703881529751e-05,4.10660722548541e-05,4.069147963122973e-05,4.032320282455478e-05,3.9961184694506534e-05,3.9605369071464285e-05,3.925570074781161e-05,3.891212546939013e-05,3.857458992709862e-05,3.8243041748639484e-05,3.791742949040939e-05,3.7597702629534124e-05,3.728381155604496e-05,3.697570756519702e-05,3.667334284992738e-05,3.637667049345198e-05,3.608564446199944e-05,3.580021959768384e-05,3.552035161150969e-05,3.524599707651407e-05,3.4977113421040674e-05,3.4713658922146844e-05,3.445559269914137e-05,3.420287470725304e-05,3.3955465731428564e-05,3.3713327380258496e-05,3.347642208003096e-05,3.324471306891193e-05,3.301816439125092e-05,3.279674089201166e-05,3.258040821132661e-05,3.236913277917469e-05,3.216288181018075e-05,3.1961623298537676e-05,3.176532601304765e-05,3.157395949228459e-05,3.1387494039875154e-05,3.120590071989813e-05,3.102915135240214e-05,3.0857218509039746e-05,3.069007550881831e-05,3.052769641396648e-05,3.0370056025915843e-05,3.0217129881396947e-05,3.0068894248649086e-05,2.9925326123743898e-05,2.9786403227020884e-05,2.9652103999635885e-05,2.952240760022073e-05,2.939729390165408e-05,2.9276743487943048e-05,2.9160737651214886e-05,2.9049258388818262e-05,2.894228840053411e-05,2.8839811085894912e-05,2.8741810541612444e-05,2.8648271559113867e-05,2.855917962218508e-05,2.847452090472138e-05,2.839428226858527e-05,2.8318451261570614e-05,2.8247016115473155e-05,2.8179965744267033e-05,2.8117289742386976e-05,2.805897838311589e-05,2.8005022617077696e-05,2.7955414070835046e-05,2.7910145045591855e-05,2.786920851600031e-05,2.7832598129072235e-05,2.7800308203194646e-05,2.7772333727249338e-05,2.7748670359836417e-05,2.7729314428601515e-05,2.7714262929666726e-05,2.7703513527165184e-05,2.7697064552879022e-05,2.7694915005980922e-05
