-4.924263014047538e-09,-4.829565648392778e-09,-4.734868282738017e-09,-4.640170917083257e-09,-4.545473551428496e-09,-4.450776185773736e-09,-4.356078820118976e-09,-4.261381454464215e-09,-4.166684088809455e-09,-4.071986723154695e-09,-3.977289357499934e-09,-3.882591991845174e-09,-3.7878946261904135e-09,-3.6931972605356534e-09,-3.598499894880893e-09,-3.5038025292261326e-09,-3.4091051635713725e-09,-3.3144077979166117e-09,-3.2197104322618517e-09,-3.1250130666070912e-09,-3.0303157009523308e-09,-2.9356183352975707e-09,-2.8409209696428103e-09,-2.74622360398805e-09,-2.6515262383332894e-09,-2.556828872678529e-09,-2.462131507023769e-09,-2.3674341413690085e-09,-2.272736775714248e-09,-2.1780394100594876e-09,-2.0833420444047276e-09,-1.988644678749967e-09,-1.8939473130952067e-09,-1.7992499474404463e-09,-1.7045525817856859e-09,-1.6098552161309258e-09,-1.5151578504761654e-09,-1.420460484821405e-09,-1.3257631191666445e-09,-1.2310657535118845e-09,-1.1363683878571236e-09,-1.0416710222023636e-09,-9.469736565476036e-10,-8.522762908928427e-10,-7.575789252380827e-10,-6.628815595833218e-10,-5.681841939285618e-10,-4.734868282738018e-10,-3.7878946261904093e-10,-2.840920969642809e-10,-1.8939473130952005e-10,-9.469736565476003e-11,0.0,9.469736565476085e-11,1.8939473130952088e-10,2.840920969642809e-10,3.7878946261904176e-10,4.734868282738018e-10,5.681841939285626e-10,6.628815595833227e-10,7.575789252380827e-10,8.522762908928435e-10,9.469736565476036e-10,1.0416710222023644e-09,1.1363683878571245e-09,1.2310657535118845e-09,1.3257631191666453e-09,1.4204604848214054e-09,1.5151578504761662e-09,1.6098552161309262e-09,1.7045525817856863e-09,1.7992499474404471e-09,1.893947313095207e-09,1.988644678749968e-09,2.083342044404728e-09,2.178039410059488e-09,2.272736775714249e-09,2.367434141369009e-09,2.462131507023769e-09,2.55682887267853e-09,2.6515262383332907e-09,2.74622360398805e-09,2.8409209696428107e-09,2.9356183352975716e-09,3.0303157009523308e-09,3.1250130666070916e-09,3.2197104322618525e-09,3.3144077979166117e-09,3.4091051635713725e-09,3.5038025292261334e-09,3.5984998948808942e-09,3.6931972605356534e-09,3.787894626190414e-09,3.882591991845175e-09,3.977289357499934e-09,4.071986723154695e-09,4.166684088809456e-09,4.261381454464215e-09,4.356078820118976e-09,4.450776185773737e-09,4.545473551428498e-09,4.640170917083257e-09,4.734868282738018e-09,4.829565648392779e-09,4.924263014047538e-09
0.0007494196429102353,0.0007493911399594319,0.0007493040375260342,0.0007491534670960906,0.0007489310173769072,0.0007486242726129781,0.0007482161335847313,0.0007476838873278859,0.000746997980154428,0.0007461204360687963,0.0007450028493663403,0.0007435838667551545,0.0007417860622272449,0.0007395120998890763,0.000736640080889229,0.0007330179885262696,0.0007284571935288357,0.0007227250793884078,0.0007155370252418219,0.0007065482832422114,0.0006953467642209646,0.0006814484653249108,0.0006642982973686519,0.0006432804182592629,0.0006177437570471648,0.000587049879222096,0.0005506509152240909,0.0005082035146470491,0.00045971854401477064,0.00040573310671773624,0.0003474703500480912,0.00028692684681449684,0.0002268089498934905,0.0001702497415593805,0.00012029905631882846,7.929032146289224e-05,4.8301564909619426e-05,2.6954155352041256e-05,1.366677262694926e-05,6.251607079605206e-06,2.5648732806550418e-06,9.395913222907235e-07,3.0635430704023194e-07,8.872177683619949e-08,2.2796961630293617e-08,5.195255886187267e-09,1.0502975747442505e-09,1.8848532891536316e-10,3.005637588414552e-11,4.264240508304472e-12,5.390601565242059e-13,6.081865064359134e-14,1.2304695223013056,6.081865064359134e-14,5.390601565242059e-13,4.264240508304472e-12,3.005637588414552e-11,1.8848532891536316e-10,1.0502975747442505e-09,5.195255886187267e-09,2.2796961630293617e-08,8.872177683619949e-08,3.0635430704023194e-07,9.395913222907235e-07,2.5648732806550418e-06,6.251607079605206e-06,1.366677262694926e-05,2.6954155352041256e-05,4.8301564909619426e-05,7.929032146289224e-05,0.00012029905631882846,0.0001702497415593805,0.0002268089498934905,0.00028692684681449684,0.0003474703500480912,0.00040573310671773624,0.00045971854401477064,0.0005082035146470491,0.0005506509152240909,0.000587049879222096,0.0006177437570471648,0.0006432804182592629,0.0006642982973686519,0.0006814484653249108,0.0006953467642209646,0.0007065482832422114,0.0007155370252418219,0.0007227250793884078,0.0007284571935288357,0.0007330179885262696,0.000736640080889229,0.0007395120998890763,0.0007417860622272449,0.0007435838667551545,0.0007450028493663403,0.0007461204360687963,0.000746997980154428,0.0007476838873278859,0.0007482161335847313,0.0007486242726129781,0.0007489310173769072,0.0007491534670960906,0.0007493040375260342,0.0007493911399594319,0.0007494196429102353
0.09843244761656578,0.09843057574016403,0.09842485523497474,0.0984149656463666,0.0984003531485095,0.09838019983420214,0.0983533784534371,0.09831839021406616,0.09827328240600182,0.09821554163392188,0.09814195732244252,0.09804844888416514,0.0979298485299291,0.09777963020878122,0.09758957372138737,0.09734935190358203,0.09704602836879671,0.09666345437483384,0.09618155714756542,0.0955755203288605,0.09481487292658637,0.09386253023402392,0.09267387399733144,0.09119602607167225,0.08936756623560181,0.08711907384801827,0.0843750282055964,0.08105775672021874,0.07709420948769266,0.07242624535074732,0.0670246607133113,0.060906177125087425,0.05415092034300254,0.04691578409251718,0.039437271346405844,0.032017383475417854,0.024989429940848348,0.018667605390907258,0.01329256317061704,0.008990246206830482,0.0057584911669531745,0.0034853407731163816,0.001990158856204911,0.0010710034350564206,0.0005428929881344519,0.0002591667125478448,0.00011652843924383588,4.936447518663695e-05,1.9712606605637873e-05,7.425002326086657e-06,2.6399418748459237e-06,8.86735587719324e-07,0.3548049742874953,8.86735587719324e-07,2.6399418748459237e-06,7.425002326086657e-06,1.9712606605637873e-05,4.936447518663695e-05,0.00011652843924383588,0.0002591667125478448,0.0005428929881344519,0.0010710034350564206,0.001990158856204911,0.0034853407731163816,0.0057584911669531745,0.008990246206830482,0.01329256317061704,0.018667605390907258,0.024989429940848348,0.032017383475417854,0.039437271346405844,0.04691578409251718,0.05415092034300254,0.060906177125087425,0.0670246607133113,0.07242624535074732,0.07709420948769266,0.08105775672021874,0.0843750282055964,0.08711907384801827,0.08936756623560181,0.09119602607167225,0.09267387399733144,0.09386253023402392,0.09481487292658637,0.0955755203288605,0.09618155714756542,0.09666345437483384,0.09704602836879671,0.09734935190358203,0.09758957372138737,0.09777963020878122,0.0979298485299291,0.09804844888416514,0.09814195732244252,0.09821554163392188,0.09827328240600182,0.09831839021406616,0.0983533784534371,0.09838019983420214,0.0984003531485095,0.0984149656463666,0.09842485523497474,0.09843057574016403,0.09843244761656578
-4.924263014047538e-09,-4.919278942170972e-09,-4.9142948702944055e-09,-4.9093107984178385e-09,-4.904326726541272e-09,-4.899342654664706e-09,-4.89435858278814e-09,-4.889374510911574e-09,-4.884390439035008e-09,-4.879406367158441e-09,-4.874422295281874e-09,-4.869438223405308e-09,-4.864454151528742e-09,-4.859470079652176e-09,-4.85448600777561e-09,-4.849501935899043e-09,-4.8445178640224765e-09,-4.83953379214591e-09,-4.834549720269344e-09,-4.829565648392778e-09,-4.824581576516211e-09,-4.819597504639645e-09,-4.8146134327630785e-09,-4.809629360886512e-09,-4.804645289009946e-09,-4.79966121713338e-09,-4.794677145256813e-09,-4.789693073380247e-09,-4.7847090015036806e-09,-4.779724929627114e-09,-4.774740857750548e-09,-4.769756785873981e-09,-4.764772713997415e-09,-4.759788642120849e-09,-4.754804570244283e-09,-4.7498204983677164e-09,-4.74483642649115e-09,-4.739852354614583e-09,-4.734868282738017e-09,-4.729884210861451e-09,-4.724900138984885e-09,-4.7199160671083185e-09,-4.714931995231752e-09,-4.709947923355185e-09,-4.704963851478619e-09,-4.699979779602053e-09,-4.694995707725487e-09,-4.6900116358489205e-09,-4.685027563972354e-09,-4.680043492095787e-09,-4.675059420219221e-09,-4.670075348342655e-09,-4.665091276466089e-09,-4.660107204589523e-09,-4.6551231327129556e-09,-4.650139060836389e-09,-4.645154988959823e-09,-4.640170917083257e-09,-4.635186845206691e-09,-4.630202773330125e-09,-4.625218701453558e-09,-4.6202346295769914e-09,-4.615250557700425e-09,-4.610266485823859e-09,-4.605282413947293e-09,-4.600298342070726e-09,-4.59531427019416e-09,-4.5903301983175935e-09,-4.585346126441027e-09,-4.580362054564461e-09,-4.575377982687895e-09,-4.570393910811328e-09,-4.565409838934762e-09,-4.5604257670581955e-09,-4.555441695181629e-09,-4.550457623305063e-09,-4.545473551428496e-09,-4.54048947955193e-09,-4.535505407675364e-09,-4.530521335798798e-09,-4.5255372639222314e-09,-4.520553192045665e-09,-4.515569120169098e-09,-4.510585048292532e-09,-4.505600976415966e-09,-4.5006169045394e-09,-4.4956328326628335e-09,-4.490648760786267e-09,-4.4856646889097e-09,-4.480680617033134e-09,-4.475696545156568e-09,-4.470712473280002e-09,-4.4657284014034355e-09,-4.460744329526869e-09,-4.455760257650302e-09,-4.450776185773736e-09,-4.44579211389717e-09,-4.440808042020604e-09,-4.4358239701440376e-09,-4.4308398982674706e-09,-4.425855826390904e-09,-4.420871754514338e-09,-4.415887682637772e-09,-4.410903610761206e-09,-4.40591953888464e-09,-4.400935467008073e-09,-4.3959513951315064e-09,-4.39096732325494e-09,-4.385983251378374e-09,-4.380999179501808e-09,-4.376015107625241e-09,-4.371031035748675e-09,-4.3660469638721085e-09,-4.361062891995542e-09,-4.356078820118976e-09,-4.35109474824241e-09,-4.346110676365843e-09,-4.341126604489277e-09,-4.3361425326127105e-09,-4.331158460736144e-09,-4.326174388859578e-09,-4.321190316983011e-09,-4.316206245106445e-09,-4.311222173229879e-09,-4.306238101353313e-09,-4.301254029476746e-09,-4.29626995760018e-09,-4.291285885723613e-09,-4.286301813847047e-09,-4.281317741970481e-09,-4.276333670093915e-09,-4.2713495982173485e-09,-4.2663655263407814e-09,-4.261381454464215e-09,-4.256397382587649e-09,-4.251413310711083e-09,-4.246429238834517e-09,-4.2414451669579505e-09,-4.236461095081384e-09,-4.231477023204817e-09,-4.226492951328251e-09,-4.221508879451685e-09,-4.216524807575119e-09,-4.2115407356985526e-09,-4.2065566638219855e-09,-4.201572591945419e-09,-4.196588520068853e-09,-4.191604448192287e-09,-4.186620376315721e-09,-4.181636304439155e-09,-4.176652232562588e-09,-4.1716681606860214e-09,-4.166684088809455e-09,-4.161700016932889e-09,-4.156715945056323e-09,-4.151731873179756e-09,-4.14674780130319e-09,-4.1417637294266235e-09,-4.136779657550057e-09,-4.131795585673491e-09,-4.126811513796925e-09,-4.121827441920358e-09,-4.116843370043792e-09,-4.1118592981672255e-09,-4.106875226290659e-09,-4.101891154414093e-09,-4.096907082537526e-09,-4.09192301066096e-09,-4.086938938784394e-09,-4.0819548669078276e-09,-4.076970795031261e-09,-4.071986723154695e-09,-4.067002651278128e-09,-4.062018579401562e-09,-4.057034507524996e-09,-4.05205043564843e-09,-4.0470663637718634e-09,-4.0420822918952964e-09,-4.03709822001873e-09,-4.032114148142164e-09,-4.027130076265598e-09,-4.022146004389032e-09,-4.0171619325124655e-09,-4.012177860635899e-09,-4.007193788759332e-09,-4.002209716882766e-09,-3.9972256450062e-09,-3.992241573129634e-09,-3.987257501253067e-09,-3.9822734293765005e-09,-3.977289357499934e-09,-3.972305285623368e-09,-3.967321213746802e-09,-3.962337141870236e-09,-3.95735306999367e-09,-3.952368998117103e-09,-3.947384926240536e-09,-3.94240085436397e-09,-3.937416782487404e-09,-3.932432710610838e-09,-3.927448638734271e-09,-3.922464566857705e-09,-3.9174804949811385e-09,-3.912496423104572e-09,-3.907512351228006e-09,-3.90252827935144e-09,-3.897544207474874e-09,-3.892560135598307e-09,-3.8875760637217405e-09,-3.882591991845174e-09,-3.877607919968608e-09,-3.872623848092041e-09,-3.867639776215475e-09,-3.862655704338909e-09,-3.8576716324623426e-09,-3.852687560585776e-09,-3.84770348870921e-09,-3.842719416832644e-09,-3.837735344956077e-09,-3.832751273079511e-09,-3.827767201202945e-09,-3.8227831293263784e-09,-3.8177990574498114e-09,-3.812814985573245e-09,-3.807830913696679e-09,-3.802846841820113e-09,-3.797862769943547e-09,-3.7928786980669805e-09,-3.787894626190414e-09,-3.782910554313847e-09,-3.777926482437281e-09,-3.772942410560715e-09,-3.767958338684149e-09,-3.762974266807582e-09,-3.7579901949310155e-09,-3.753006123054449e-09,-3.748022051177883e-09,-3.743037979301317e-09,-3.738053907424751e-09,-3.733069835548185e-09,-3.7280857636716176e-09,-3.7231016917950514e-09,-3.718117619918485e-09,-3.713133548041919e-09,-3.708149476165353e-09,-3.7031654042887862e-09,-3.6981813324122196e-09,-3.6931972605356534e-09,-3.6882131886590873e-09,-3.683229116782521e-09,-3.6782450449059545e-09,-3.6732609730293883e-09,-3.6682769011528217e-09,-3.6632928292762555e-09,-3.6583087573996893e-09,-3.653324685523123e-09,-3.6483406136465565e-09,-3.64335654176999e-09,-3.6383724698934237e-09,-3.6333883980168575e-09,-3.6284043261402914e-09,-3.6234202542637248e-09,-3.6184361823871586e-09,-3.613452110510592e-09,-3.6084680386340258e-09,-3.6034839667574596e-09,-3.5984998948808934e-09,-3.593515823004327e-09,-3.5885317511277602e-09,-3.583547679251194e-09,-3.578563607374628e-09,-3.5735795354980617e-09,-3.5685954636214955e-09,-3.563611391744929e-09,-3.5586273198683623e-09,-3.553643247991796e-09,-3.54865917611523e-09,-3.5436751042386637e-09,-3.538691032362097e-09,-3.533706960485531e-09,-3.5287228886089643e-09,-3.523738816732398e-09,-3.518754744855832e-09,-3.5137706729792658e-09,-3.508786601102699e-09,-3.5038025292261326e-09,-3.4988184573495664e-09,-3.493834385473e-09,-3.488850313596434e-09,-3.483866241719868e-09,-3.4788821698433012e-09,-3.4738980979667346e-09,-3.4689140260901684e-09,-3.4639299542136022e-09,-3.458945882337036e-09,-3.4539618104604695e-09,-3.4489777385839033e-09,-3.4439936667073367e-09,-3.4390095948307705e-09,-3.4340255229542043e-09,-3.429041451077638e-09,-3.4240573792010715e-09,-3.419073307324505e-09,-3.4140892354479387e-09,-3.4091051635713725e-09,-3.4041210916948063e-09,-3.3991370198182397e-09,-3.3941529479416736e-09,-3.389168876065107e-09,-3.3841848041885408e-09,-3.3792007323119746e-09,-3.3742166604354084e-09,-3.369232588558842e-09,-3.364248516682275e-09,-3.359264444805709e-09,-3.354280372929143e-09,-3.3492963010525766e-09,-3.3443122291760105e-09,-3.339328157299444e-09,-3.3343440854228773e-09,-3.329360013546311e-09,-3.324375941669745e-09,-3.3193918697931787e-09,-3.314407797916612e-09,-3.309423726040046e-09,-3.3044396541634793e-09,-3.299455582286913e-09,-3.294471510410347e-09,-3.2894874385337807e-09,-3.284503366657214e-09,-3.2795192947806475e-09,-3.2745352229040814e-09,-3.269551151027515e-09,-3.264567079150949e-09,-3.259583007274383e-09,-3.254598935397816e-09,-3.2496148635212496e-09,-3.2446307916446834e-09,-3.2396467197681172e-09,-3.234662647891551e-09,-3.2296785760149844e-09,-3.2246945041384183e-09,-3.2197104322618517e-09,-3.2147263603852855e-09,-3.2097422885087193e-09,-3.204758216632153e-09,-3.1997741447555865e-09,-3.19479007287902e-09,-3.1898060010024537e-09,-3.1848219291258875e-09,-3.1798378572493213e-09,-3.1748537853727547e-09,-3.1698697134961885e-09,-3.164885641619622e-09,-3.1599015697430558e-09,-3.1549174978664896e-09,-3.1499334259899234e-09,-3.1449493541133568e-09,-3.13996528223679e-09,-3.134981210360224e-09,-3.129997138483658e-09,-3.1250130666070916e-09,-3.1200289947305254e-09,-3.115044922853959e-09,-3.1100608509773922e-09,-3.105076779100826e-09,-3.10009270722426e-09,-3.0951086353476937e-09,-3.090124563471127e-09,-3.085140491594561e-09,-3.0801564197179943e-09,-3.075172347841428e-09,-3.070188275964862e-09,-3.0652042040882957e-09,-3.060220132211729e-09,-3.055236060335163e-09,-3.0502519884585963e-09,-3.04526791658203e-09,-3.040283844705464e-09,-3.0352997728288974e-09,-3.030315700952331e-09,-3.025331629075765e-09,-3.0203475571991984e-09,-3.0153634853226322e-09,-3.010379413446066e-09,-3.0053953415694994e-09,-3.0004112696929332e-09,-2.9954271978163666e-09,-2.9904431259398005e-09,-2.9854590540632343e-09,-2.9804749821866677e-09,-2.9754909103101015e-09,-2.9705068384335353e-09,-2.9655227665569687e-09,-2.9605386946804025e-09,-2.9555546228038363e-09,-2.9505705509272697e-09,-2.9455864790507035e-09,-2.9406024071741373e-09,-2.9356183352975707e-09,-2.9306342634210046e-09,-2.925650191544438e-09,-2.9206661196678718e-09,-2.9156820477913056e-09,-2.910697975914739e-09,-2.905713904038173e-09,-2.9007298321616066e-09,-2.89574576028504e-09,-2.890761688408474e-09,-2.8857776165319076e-09,-2.880793544655341e-09,-2.875809472778775e-09,-2.8708254009022087e-09,-2.865841329025642e-09,-2.860857257149076e-09,-2.8558731852725093e-09,-2.850889113395943e-09,-2.845905041519377e-09,-2.8409209696428103e-09,-2.835936897766244e-09,-2.830952825889678e-09,-2.8259687540131113e-09,-2.820984682136545e-09,-2.816000610259979e-09,-2.8110165383834124e-09,-2.806032466506846e-09,-2.80104839463028e-09,-2.7960643227537134e-09,-2.791080250877147e-09,-2.786096179000581e-09,-2.7811121071240144e-09,-2.7761280352474482e-09,-2.7711439633708816e-09,-2.7661598914943154e-09,-2.7611758196177493e-09,-2.7561917477411827e-09,-2.7512076758646165e-09,-2.7462236039880503e-09,-2.7412395321114837e-09,-2.7362554602349175e-09,-2.7312713883583513e-09,-2.7262873164817847e-09,-2.7213032446052185e-09,-2.7163191727286523e-09,-2.7113351008520857e-09,-2.7063510289755195e-09,-2.701366957098953e-09,-2.6963828852223868e-09,-2.6913988133458206e-09,-2.686414741469254e-09,-2.6814306695926878e-09,-2.6764465977161216e-09,-2.671462525839555e-09,-2.666478453962989e-09,-2.6614943820864226e-09,-2.656510310209856e-09,-2.65152623833329e-09,-2.6465421664567237e-09,-2.641558094580157e-09,-2.636574022703591e-09,-2.6315899508270243e-09,-2.626605878950458e-09,-2.621621807073892e-09,-2.6166377351973253e-09,-2.611653663320759e-09,-2.606669591444193e-09,-2.6016855195676263e-09,-2.59670144769106e-09,-2.591717375814494e-09,-2.5867333039379273e-09,-2.581749232061361e-09,-2.576765160184795e-09,-2.5717810883082284e-09,-2.566797016431662e-09,-2.561812944555096e-09,-2.5568288726785294e-09,-2.5518448008019632e-09,-2.5468607289253966e-09,-2.5418766570488304e-09,-2.5368925851722642e-09,-2.5319085132956976e-09,-2.5269244414191315e-09,-2.5219403695425653e-09,-2.5169562976659987e-09,-2.5119722257894325e-09,-2.5069881539128663e-09,-2.5020040820362997e-09,-2.4970200101597335e-09,-2.4920359382831673e-09,-2.4870518664066007e-09,-2.4820677945300345e-09,-2.477083722653468e-09,-2.4720996507769017e-09,-2.4671155789003356e-09,-2.462131507023769e-09,-2.4571474351472028e-09,-2.4521633632706366e-09,-2.44717929139407e-09,-2.442195219517504e-09,-2.4372111476409376e-09,-2.432227075764371e-09,-2.427243003887805e-09,-2.4222589320112386e-09,-2.417274860134672e-09,-2.412290788258106e-09,-2.4073067163815393e-09,-2.402322644504973e-09,-2.397338572628407e-09,-2.3923545007518403e-09,-2.387370428875274e-09,-2.382386356998708e-09,-2.3774022851221413e-09,-2.372418213245575e-09,-2.367434141369009e-09,-2.3624500694924423e-09,-2.357465997615876e-09,-2.35248192573931e-09,-2.3474978538627434e-09,-2.342513781986177e-09,-2.337529710109611e-09,-2.3325456382330444e-09,-2.327561566356478e-09,-2.3225774944799116e-09,-2.3175934226033454e-09,-2.3126093507267792e-09,-2.3076252788502126e-09,-2.3026412069736464e-09,-2.2976571350970803e-09,-2.2926730632205137e-09,-2.2876889913439475e-09,-2.2827049194673813e-09,-2.2777208475908147e-09,-2.2727367757142485e-09,-2.2677527038376823e-09,-2.2627686319611157e-09,-2.2577845600845495e-09,-2.252800488207983e-09,-2.2478164163314167e-09,-2.2428323444548505e-09,-2.237848272578284e-09,-2.2328642007017178e-09,-2.2278801288251516e-09,-2.222896056948585e-09,-2.2179119850720188e-09,-2.2129279131954526e-09,-2.207943841318886e-09,-2.20295976944232e-09,-2.1979756975657536e-09,-2.192991625689187e-09,-2.188007553812621e-09,-2.1830234819360542e-09,-2.178039410059488e-09,-2.173055338182922e-09,-2.1680712663063553e-09,-2.163087194429789e-09,-2.158103122553223e-09,-2.1531190506766563e-09,-2.14813497880009e-09,-2.143150906923524e-09,-2.1381668350469573e-09,-2.133182763170391e-09,-2.128198691293825e-09,-2.1232146194172583e-09,-2.118230547540692e-09,-2.113246475664126e-09,-2.1082624037875594e-09,-2.103278331910993e-09,-2.0982942600344266e-09,-2.0933101881578604e-09,-2.0883261162812942e-09,-2.0833420444047276e-09,-2.0783579725281614e-09,-2.0733739006515952e-09,-2.0683898287750286e-09,-2.0634057568984625e-09,-2.0584216850218963e-09,-2.0534376131453297e-09,-2.0484535412687635e-09,-2.0434694693921973e-09,-2.0384853975156307e-09,-2.0335013256390645e-09,-2.028517253762498e-09,-2.0235331818859317e-09,-2.0185491100093655e-09,-2.013565038132799e-09,-2.0085809662562327e-09,-2.0035968943796666e-09,-1.9986128225031e-09,-1.9936287506265338e-09,-1.9886446787499676e-09,-1.983660606873401e-09,-1.978676534996835e-09,-1.9736924631202686e-09,-1.968708391243702e-09,-1.963724319367136e-09,-1.9587402474905692e-09,-1.953756175614003e-09,-1.948772103737437e-09,-1.9437880318608703e-09,-1.938803959984304e-09,-1.933819888107738e-09,-1.9288358162311713e-09,-1.923851744354605e-09,-1.918867672478039e-09,-1.9138836006014723e-09,-1.908899528724906e-09,-1.90391545684834e-09,-1.8989313849717733e-09,-1.893947313095207e-09,-1.888963241218641e-09,-1.8839791693420744e-09,-1.878995097465508e-09,-1.8740110255889416e-09,-1.8690269537123754e-09,-1.864042881835809e-09,-1.8590588099592426e-09,-1.8540747380826764e-09,-1.8490906662061102e-09,-1.8441065943295436e-09,-1.8391225224529774e-09,-1.8341384505764113e-09,-1.8291543786998447e-09,-1.8241703068232785e-09,-1.8191862349467123e-09,-1.8142021630701457e-09,-1.8092180911935795e-09,-1.8042340193170129e-09,-1.7992499474404467e-09,-1.7942658755638805e-09,-1.789281803687314e-09,-1.7842977318107477e-09,-1.7793136599341815e-09,-1.774329588057615e-09,-1.7693455161810488e-09,-1.7643614443044826e-09,-1.759377372427916e-09,-1.7543933005513498e-09,-1.7494092286747836e-09,-1.744425156798217e-09,-1.7394410849216508e-09,-1.7344570130450842e-09,-1.729472941168518e-09,-1.7244888692919518e-09,-1.7195047974153852e-09,-1.714520725538819e-09,-1.7095366536622529e-09,-1.7045525817856863e-09,-1.69956850990912e-09,-1.6945844380325539e-09,-1.6896003661559873e-09,-1.6846162942794211e-09,-1.679632222402855e-09,-1.6746481505262883e-09,-1.6696640786497221e-09,-1.664680006773156e-09,-1.6596959348965893e-09,-1.6547118630200232e-09,-1.6497277911434566e-09,-1.6447437192668904e-09,-1.6397596473903242e-09,-1.6347755755137576e-09,-1.6297915036371914e-09,-1.6248074317606252e-09,-1.6198233598840586e-09,-1.6148392880074924e-09,-1.6098552161309262e-09,-1.6048711442543596e-09,-1.5998870723777935e-09,-1.5949030005012273e-09,-1.5899189286246607e-09,-1.5849348567480945e-09,-1.5799507848715279e-09,-1.5749667129949617e-09,-1.5699826411183955e-09,-1.564998569241829e-09,-1.5600144973652627e-09,-1.5550304254886965e-09,-1.55004635361213e-09,-1.5450622817355637e-09,-1.5400782098589976e-09,-1.535094137982431e-09,-1.5301100661058648e-09,-1.5251259942292986e-09,-1.520141922352732e-09,-1.5151578504761658e-09,-1.5101737785995996e-09,-1.505189706723033e-09,-1.5002056348464668e-09,-1.4952215629699002e-09,-1.490237491093334e-09,-1.4852534192167679e-09,-1.4802693473402013e-09,-1.475285275463635e-09,-1.4703012035870689e-09,-1.4653171317105023e-09,-1.460333059833936e-09,-1.45534898795737e-09,-1.4503649160808033e-09,-1.4453808442042371e-09,-1.440396772327671e-09,-1.4354127004511043e-09,-1.4304286285745381e-09,-1.4254445566979715e-09,-1.4204604848214054e-09,-1.4154764129448392e-09,-1.4104923410682726e-09,-1.4055082691917064e-09,-1.4005241973151402e-09,-1.3955401254385736e-09,-1.3905560535620074e-09,-1.3855719816854412e-09,-1.3805879098088746e-09,-1.3756038379323084e-09,-1.3706197660557423e-09,-1.3656356941791757e-09,-1.3606516223026095e-09,-1.3556675504260429e-09,-1.3506834785494767e-09,-1.3456994066729105e-09,-1.3407153347963439e-09,-1.3357312629197777e-09,-1.3307471910432115e-09,-1.325763119166645e-09,-1.3207790472900787e-09,-1.3157949754135125e-09,-1.310810903536946e-09,-1.3058268316603798e-09,-1.3008427597838136e-09,-1.295858687907247e-09,-1.2908746160306808e-09,-1.2858905441541146e-09,-1.280906472277548e-09,-1.2759224004009818e-09,-1.2709383285244152e-09,-1.265954256647849e-09,-1.2609701847712828e-09,-1.2559861128947162e-09,-1.25100204101815e-09,-1.2460179691415839e-09,-1.2410338972650173e-09,-1.236049825388451e-09,-1.2310657535118849e-09,-1.2260816816353183e-09,-1.2210976097587521e-09,-1.216113537882186e-09,-1.2111294660056193e-09,-1.2061453941290531e-09,-1.2011613222524865e-09,-1.1961772503759203e-09,-1.1911931784993542e-09,-1.186209106622788e-09,-1.1812250347462218e-09,-1.1762409628696548e-09,-1.1712568909930886e-09,-1.1662728191165224e-09,-1.1612887472399562e-09,-1.15630467536339e-09,-1.151320603486823e-09,-1.1463365316102568e-09,-1.1413524597336906e-09,-1.1363683878571245e-09,-1.1313843159805583e-09,-1.126400244103992e-09,-1.121416172227425e-09,-1.1164321003508589e-09,-1.1114480284742927e-09,-1.1064639565977265e-09,-1.1014798847211603e-09,-1.0964958128445941e-09,-1.0915117409680271e-09,-1.086527669091461e-09,-1.0815435972148947e-09,-1.0765595253383286e-09,-1.0715754534617624e-09,-1.0665913815851954e-09,-1.0616073097086292e-09,-1.056623237832063e-09,-1.0516391659554968e-09,-1.0466550940789306e-09,-1.0416710222023644e-09,-1.0366869503257974e-09,-1.0317028784492312e-09,-1.026718806572665e-09,-1.0217347346960989e-09,-1.0167506628195327e-09,-1.0117665909429657e-09,-1.0067825190663995e-09,-1.0017984471898333e-09,-9.96814375313267e-10,-9.91830303436701e-10,-9.868462315601347e-10,-9.818621596835677e-10,-9.768780878070015e-10,-9.718940159304353e-10,-9.669099440538691e-10,-9.61925872177303e-10,-9.569418003007368e-10,-9.519577284241698e-10,-9.469736565476036e-10,-9.419895846710374e-10,-9.370055127944712e-10,-9.32021440917905e-10,-9.27037369041338e-10,-9.220532971647718e-10,-9.170692252882056e-10,-9.120851534116394e-10,-9.071010815350733e-10,-9.021170096585071e-10,-8.971329377819401e-10,-8.921488659053739e-10,-8.871647940288077e-10,-8.821807221522415e-10,-8.771966502756753e-10,-8.722125783991091e-10,-8.672285065225421e-10,-8.622444346459759e-10,-8.572603627694097e-10,-8.522762908928435e-10,-8.472922190162774e-10,-8.423081471397103e-10,-8.373240752631442e-10,-8.32340003386578e-10,-8.273559315100118e-10,-8.223718596334456e-10,-8.173877877568794e-10,-8.124037158803124e-10,-8.074196440037462e-10,-8.0243557212718e-10,-7.974515002506138e-10,-7.924674283740477e-10,-7.874833564974806e-10,-7.824992846209145e-10,-7.775152127443483e-10,-7.725311408677821e-10,-7.675470689912159e-10,-7.625629971146497e-10,-7.575789252380827e-10,-7.525948533615165e-10,-7.476107814849503e-10,-7.426267096083841e-10,-7.376426377318179e-10,-7.326585658552518e-10,-7.276744939786847e-10,-7.226904221021186e-10,-7.177063502255524e-10,-7.127222783489862e-10,-7.0773820647242e-10,-7.02754134595853e-10,-6.977700627192868e-10,-6.927859908427206e-10,-6.878019189661544e-10,-6.828178470895882e-10,-6.778337752130221e-10,-6.72849703336455e-10,-6.678656314598889e-10,-6.628815595833227e-10,-6.578974877067565e-10,-6.529134158301903e-10,-6.479293439536241e-10,-6.429452720770571e-10,-6.379612002004909e-10,-6.329771283239247e-10,-6.279930564473585e-10,-6.230089845707923e-10,-6.180249126942253e-10,-6.130408408176591e-10,-6.08056768941093e-10,-6.030726970645268e-10,-5.980886251879606e-10,-5.931045533113944e-10,-5.881204814348274e-10,-5.831364095582612e-10,-5.78152337681695e-10,-5.731682658051288e-10,-5.681841939285626e-10,-5.632001220519956e-10,-5.582160501754294e-10,-5.532319782988633e-10,-5.482479064222971e-10,-5.432638345457309e-10,-5.382797626691647e-10,-5.332956907925977e-10,-5.283116189160315e-10,-5.233275470394653e-10,-5.183434751628991e-10,-5.133594032863329e-10,-5.083753314097667e-10,-5.033912595331997e-10,-4.984071876566335e-10,-4.934231157800674e-10,-4.884390439035012e-10,-4.83454972026935e-10,-4.78470900150368e-10,-4.734868282738018e-10,-4.685027563972356e-10,-4.635186845206694e-10,-4.5853461264410323e-10,-4.5355054076753704e-10,-4.4856646889097003e-10,-4.4358239701440384e-10,-4.3859832513783765e-10,-4.3361425326127147e-10,-4.286301813847053e-10,-4.236461095081391e-10,-4.186620376315721e-10,-4.136779657550059e-10,-4.086938938784397e-10,-4.037098220018735e-10,-3.9872575012530733e-10,-3.937416782487403e-10,-3.8875760637217413e-10,-3.8377353449560795e-10,-3.7878946261904176e-10,-3.7380539074247557e-10,-3.688213188659094e-10,-3.6383724698934237e-10,-3.588531751127762e-10,-3.5386910323621e-10,-3.488850313596438e-10,-3.4390095948307763e-10,-3.389168876065106e-10,-3.3393281572994443e-10,-3.2894874385337824e-10,-3.2396467197681205e-10,-3.1898060010024587e-10,-3.139965282236797e-10,-3.0901245634711267e-10,-3.040283844705465e-10,-2.990443125939803e-10,-2.940602407174141e-10,-2.890761688408479e-10,-2.8409209696428173e-10,-2.791080250877147e-10,-2.7412395321114853e-10,-2.6913988133458235e-10,-2.6415580945801616e-10,-2.5917173758144997e-10,-2.5418766570488296e-10,-2.4920359382831677e-10,-2.442195219517506e-10,-2.392354500751844e-10,-2.342513781986182e-10,-2.2926730632205203e-10,-2.2428323444548501e-10,-2.1929916256891883e-10,-2.1431509069235264e-10,-2.0933101881578645e-10,-2.0434694693922027e-10,-1.9936287506265408e-10,-1.9437880318608707e-10,-1.8939473130952088e-10,-1.844106594329547e-10,-1.794265875563885e-10,-1.7444251567982232e-10,-1.694584438032553e-10,-1.6447437192668912e-10,-1.5949030005012293e-10,-1.5450622817355675e-10,-1.4952215629699056e-10,-1.4453808442042437e-10,-1.3955401254385736e-10,-1.3456994066729117e-10,-1.2958586879072499e-10,-1.246017969141588e-10,-1.1961772503759261e-10,-1.146336531610256e-10,-1.0964958128445941e-10,-1.0466550940789323e-10,-9.968143753132704e-11,-9.469736565476085e-11,-8.971329377819467e-11,-8.472922190162765e-11,-7.974515002506147e-11,-7.476107814849528e-11,-6.97770062719291e-11,-6.479293439536291e-11,-5.980886251879672e-11,-5.4824790642229707e-11,-4.984071876566352e-11,-4.4856646889097334e-11,-3.987257501253115e-11,-3.488850313596496e-11,-2.9904431259397947e-11,-2.492035938283176e-11,-1.9936287506265573e-11,-1.4952215629699387e-11,-9.9681437531332e-12,-4.984071876567014e-12,0.0,4.9840718765661866e-12,9.968143753132373e-12,1.495221562969856e-11,1.9936287506264746e-11,2.4920359382830933e-11,2.9904431259397947e-11,3.488850313596413e-11,3.987257501253032e-11,4.4856646889096506e-11,4.984071876566269e-11,5.4824790642229707e-11,5.980886251879589e-11,6.479293439536208e-11,6.977700627192827e-11,7.476107814849445e-11,7.974515002506064e-11,8.472922190162765e-11,8.971329377819384e-11,9.469736565476003e-11,9.968143753132621e-11,1.046655094078924e-10,1.0964958128445941e-10,1.146336531610256e-10,1.1961772503759179e-10,1.2460179691415797e-10,1.2958586879072416e-10,1.3456994066729035e-10,1.3955401254385736e-10,1.4453808442042355e-10,1.4952215629698973e-10,1.5450622817355592e-10,1.594903000501221e-10,1.644743719266883e-10,1.694584438032553e-10,1.744425156798215e-10,1.7942658755638768e-10,1.8441065943295387e-10,1.8939473130952005e-10,1.9437880318608707e-10,1.9936287506265325e-10,2.0434694693921944e-10,2.0933101881578563e-10,2.1431509069235181e-10,2.19299162568918e-10,2.2428323444548501e-10,2.292673063220512e-10,2.342513781986174e-10,2.3923545007518357e-10,2.4421952195174976e-10,2.4920359382831595e-10,2.5418766570488296e-10,2.5917173758144915e-10,2.6415580945801533e-10,2.691398813345815e-10,2.741239532111477e-10,2.791080250877147e-10,2.840920969642809e-10,2.890761688408471e-10,2.940602407174133e-10,2.9904431259397947e-10,3.0402838447054565e-10,3.0901245634711267e-10,3.1399652822367885e-10,3.1898060010024504e-10,3.2396467197681123e-10,3.289487438533774e-10,3.3393281572994443e-10,3.389168876065106e-10,3.439009594830768e-10,3.48885031359643e-10,3.5386910323620917e-10,3.5885317511277536e-10,3.6383724698934237e-10,3.6882131886590856e-10,3.7380539074247475e-10,3.7878946261904093e-10,3.837735344956071e-10,3.887576063721733e-10,3.937416782487403e-10,3.987257501253065e-10,4.037098220018727e-10,4.086938938784389e-10,4.1367796575500507e-10,4.186620376315721e-10,4.2364610950813827e-10,4.2863018138470445e-10,4.3361425326127064e-10,4.3859832513783683e-10,4.43582397014403e-10,4.4856646889097003e-10,4.535505407675362e-10,4.585346126441024e-10,4.635186845206686e-10,4.685027563972348e-10,4.73486828273801e-10,4.78470900150368e-10,4.834549720269342e-10,4.884390439035003e-10,4.934231157800665e-10,4.984071876566327e-10,5.033912595331997e-10,5.083753314097659e-10,5.133594032863321e-10,5.183434751628983e-10,5.233275470394645e-10,5.283116189160307e-10,5.332956907925977e-10,5.382797626691639e-10,5.432638345457301e-10,5.482479064222962e-10,5.532319782988624e-10,5.582160501754294e-10,5.632001220519956e-10,5.681841939285618e-10,5.73168265805128e-10,5.781523376816942e-10,5.831364095582604e-10,5.881204814348274e-10,5.931045533113936e-10,5.980886251879598e-10,6.030726970645259e-10,6.080567689410921e-10,6.130408408176583e-10,6.180249126942253e-10,6.230089845707915e-10,6.279930564473577e-10,6.329771283239239e-10,6.379612002004901e-10,6.429452720770571e-10,6.479293439536233e-10,6.529134158301895e-10,6.578974877067557e-10,6.628815595833218e-10,6.67865631459888e-10,6.72849703336455e-10,6.778337752130212e-10,6.828178470895874e-10,6.878019189661536e-10,6.927859908427198e-10,6.97770062719286e-10,7.02754134595853e-10,7.077382064724192e-10,7.127222783489854e-10,7.177063502255515e-10,7.226904221021177e-10,7.276744939786847e-10,7.326585658552509e-10,7.376426377318171e-10,7.426267096083833e-10,7.476107814849495e-10,7.525948533615157e-10,7.575789252380827e-10,7.625629971146489e-10,7.675470689912151e-10,7.725311408677813e-10,7.775152127443474e-10,7.824992846209145e-10,7.874833564974806e-10,7.924674283740468e-10,7.97451500250613e-10,8.024355721271792e-10,8.074196440037454e-10,8.124037158803124e-10,8.173877877568786e-10,8.223718596334448e-10,8.27355931510011e-10,8.323400033865771e-10,8.373240752631433e-10,8.423081471397103e-10,8.472922190162765e-10,8.522762908928427e-10,8.572603627694089e-10,8.622444346459751e-10,8.672285065225421e-10,8.722125783991083e-10,8.771966502756745e-10,8.821807221522407e-10,8.871647940288069e-10,8.92148865905373e-10,8.971329377819401e-10,9.021170096585062e-10,9.071010815350724e-10,9.120851534116386e-10,9.170692252882048e-10,9.22053297164771e-10,9.27037369041338e-10,9.320214409179042e-10,9.370055127944704e-10,9.419895846710366e-10,9.469736565476027e-10,9.519577284241698e-10,9.56941800300736e-10,9.619258721773021e-10,9.669099440538683e-10,9.718940159304345e-10,9.768780878070007e-10,9.818621596835677e-10,9.868462315601339e-10,9.918303034367e-10,9.968143753132663e-10,1.0017984471898325e-09,1.0067825190663995e-09,1.0117665909429657e-09,1.0167506628195318e-09,1.021734734696098e-09,1.0267188065726642e-09,1.0317028784492304e-09,1.0366869503257974e-09,1.0416710222023636e-09,1.0466550940789298e-09,1.051639165955496e-09,1.0566232378320622e-09,1.0616073097086283e-09,1.0665913815851954e-09,1.0715754534617615e-09,1.0765595253383277e-09,1.081543597214894e-09,1.0865276690914601e-09,1.0915117409680271e-09,1.0964958128445933e-09,1.1014798847211595e-09,1.1064639565977257e-09,1.1114480284742919e-09,1.116432100350858e-09,1.121416172227425e-09,1.1264002441039913e-09,1.1313843159805574e-09,1.1363683878571236e-09,1.1413524597336898e-09,1.146336531610256e-09,1.151320603486823e-09,1.1563046753633892e-09,1.1612887472399554e-09,1.1662728191165216e-09,1.1712568909930878e-09,1.1762409628696548e-09,1.181225034746221e-09,1.1862091066227871e-09,1.1911931784993533e-09,1.1961772503759195e-09,1.2011613222524857e-09,1.2061453941290527e-09,1.211129466005619e-09,1.216113537882185e-09,1.2210976097587513e-09,1.2260816816353175e-09,1.2310657535118845e-09,1.2360498253884507e-09,1.2410338972650169e-09,1.246017969141583e-09,1.2510020410181492e-09,1.2559861128947154e-09,1.2609701847712824e-09,1.2659542566478486e-09,1.2709383285244148e-09,1.275922400400981e-09,1.2809064722775472e-09,1.2858905441541134e-09,1.2908746160306804e-09,1.2958586879072466e-09,1.3008427597838127e-09,1.305826831660379e-09,1.3108109035369451e-09,1.3157949754135121e-09,1.3207790472900783e-09,1.3257631191666445e-09,1.3307471910432107e-09,1.3357312629197769e-09,1.340715334796343e-09,1.34569940667291e-09,1.3506834785494763e-09,1.3556675504260425e-09,1.3606516223026086e-09,1.3656356941791748e-09,1.370619766055741e-09,1.375603837932308e-09,1.3805879098088742e-09,1.3855719816854404e-09,1.3905560535620066e-09,1.3955401254385728e-09,1.4005241973151398e-09,1.405508269191706e-09,1.4104923410682722e-09,1.4154764129448383e-09,1.4204604848214045e-09,1.4254445566979707e-09,1.4304286285745377e-09,1.435412700451104e-09,1.4403967723276701e-09,1.4453808442042363e-09,1.4503649160808025e-09,1.4553489879573695e-09,1.4603330598339357e-09,1.4653171317105019e-09,1.470301203587068e-09,1.4752852754636342e-09,1.4802693473402004e-09,1.4852534192167674e-09,1.4902374910933336e-09,1.4952215629698998e-09,1.500205634846466e-09,1.5051897067230322e-09,1.5101737785995984e-09,1.5151578504761654e-09,1.5201419223527316e-09,1.5251259942292978e-09,1.530110066105864e-09,1.5350941379824301e-09,1.5400782098589971e-09,1.5450622817355633e-09,1.5500463536121295e-09,1.5550304254886957e-09,1.5600144973652619e-09,1.564998569241828e-09,1.569982641118395e-09,1.5749667129949613e-09,1.5799507848715275e-09,1.5849348567480937e-09,1.5899189286246598e-09,1.594903000501226e-09,1.599887072377793e-09,1.6048711442543592e-09,1.6098552161309254e-09,1.6148392880074916e-09,1.6198233598840578e-09,1.6248074317606248e-09,1.629791503637191e-09,1.6347755755137572e-09,1.6397596473903234e-09,1.6447437192668895e-09,1.6497277911434557e-09,1.6547118630200227e-09,1.659695934896589e-09,1.6646800067731551e-09,1.6696640786497213e-09,1.6746481505262875e-09,1.6796322224028537e-09,1.6846162942794207e-09,1.6896003661559869e-09,1.694584438032553e-09,1.6995685099091193e-09,1.7045525817856854e-09,1.7095366536622525e-09,1.7145207255388186e-09,1.7195047974153848e-09,1.724488869291951e-09,1.7294729411685172e-09,1.7344570130450834e-09,1.7394410849216504e-09,1.7444251567982166e-09,1.7494092286747828e-09,1.754393300551349e-09,1.7593773724279151e-09,1.7643614443044822e-09,1.7693455161810483e-09,1.7743295880576145e-09,1.7793136599341807e-09,1.784297731810747e-09,1.789281803687313e-09,1.7942658755638801e-09,1.7992499474404463e-09,1.8042340193170125e-09,1.8092180911935787e-09,1.8142021630701449e-09,1.819186234946711e-09,1.824170306823278e-09,1.8291543786998442e-09,1.8341384505764104e-09,1.8391225224529766e-09,1.8441065943295428e-09,1.8490906662061098e-09,1.854074738082676e-09,1.8590588099592422e-09,1.8640428818358084e-09,1.8690269537123746e-09,1.8740110255889407e-09,1.8789950974655078e-09,1.883979169342074e-09,1.88896324121864e-09,1.8939473130952063e-09,1.8989313849717725e-09,1.9039154568483387e-09,1.9088995287249057e-09,1.913883600601472e-09,1.918867672478038e-09,1.9238517443546043e-09,1.9288358162311705e-09,1.9338198881077375e-09,1.9388039599843037e-09,1.94378803186087e-09,1.948772103737436e-09,1.9537561756140022e-09,1.9587402474905684e-09,1.9637243193671354e-09,1.9687083912437016e-09,1.9736924631202678e-09,1.978676534996834e-09,1.9836606068734e-09,1.988644678749967e-09,1.9936287506265334e-09,1.9986128225030995e-09,2.0035968943796657e-09,2.008580966256232e-09,2.013565038132798e-09,2.018549110009365e-09,2.0235331818859313e-09,2.0285172537624975e-09,2.0335013256390637e-09,2.03848539751563e-09,2.043469469392196e-09,2.048453541268763e-09,2.0534376131453293e-09,2.0584216850218954e-09,2.0634057568984616e-09,2.068389828775028e-09,2.073373900651595e-09,2.078357972528161e-09,2.083342044404727e-09,2.0883261162812934e-09,2.0933101881578596e-09,2.0982942600344258e-09,2.1032783319109928e-09,2.108262403787559e-09,2.113246475664125e-09,2.1182305475406913e-09,2.1232146194172575e-09,2.1281986912938237e-09,2.1331827631703907e-09,2.138166835046957e-09,2.143150906923523e-09,2.1481349788000893e-09,2.1531190506766555e-09,2.1581031225532225e-09,2.1630871944297887e-09,2.168071266306355e-09,2.173055338182921e-09,2.1780394100594872e-09,2.1830234819360534e-09,2.1880075538126204e-09,2.1929916256891866e-09,2.197975697565753e-09,2.202959769442319e-09,2.207943841318885e-09,2.212927913195452e-09,2.2179119850720184e-09,2.2228960569485846e-09,2.2278801288251507e-09,2.232864200701717e-09,2.237848272578283e-09,2.24283234445485e-09,2.2478164163314163e-09,2.2528004882079825e-09,2.2577845600845487e-09,2.262768631961115e-09,2.267752703837681e-09,2.272736775714248e-09,2.2777208475908143e-09,2.2827049194673805e-09,2.2876889913439466e-09,2.292673063220513e-09,2.29765713509708e-09,2.302641206973646e-09,2.3076252788502122e-09,2.3126093507267784e-09,2.3175934226033446e-09,2.3225774944799108e-09,2.3275615663564778e-09,2.332545638233044e-09,2.33752971010961e-09,2.3425137819861763e-09,2.3474978538627425e-09,2.3524819257393087e-09,2.3574659976158757e-09,2.362450069492442e-09,2.367434141369008e-09,2.3724182132455743e-09,2.3774022851221405e-09,2.3823863569987075e-09,2.3873704288752737e-09,2.39235450075184e-09,2.397338572628406e-09,2.4023226445049722e-09,2.4073067163815384e-09,2.4122907882581054e-09,2.4172748601346716e-09,2.422258932011238e-09,2.427243003887804e-09,2.43222707576437e-09,2.437211147640937e-09,2.4421952195175034e-09,2.4471792913940696e-09,2.4521633632706358e-09,2.457147435147202e-09,2.462131507023768e-09,2.467115578900335e-09,2.4720996507769013e-09,2.4770837226534675e-09,2.4820677945300337e-09,2.4870518664066e-09,2.492035938283166e-09,2.497020010159733e-09,2.5020040820362993e-09,2.5069881539128655e-09,2.5119722257894317e-09,2.516956297665998e-09,2.521940369542565e-09,2.526924441419131e-09,2.5319085132956972e-09,2.5368925851722634e-09,2.5418766570488296e-09,2.5468607289253958e-09,2.551844800801962e-09,2.556828872678528e-09,2.5618129445550943e-09,2.566797016431662e-09,2.5717810883082284e-09,2.5767651601847946e-09,2.5817492320613607e-09,2.586733303937927e-09,2.591717375814493e-09,2.5967014476910593e-09,2.6016855195676255e-09,2.6066695914441917e-09,2.611653663320758e-09,2.616637735197324e-09,2.621621807073892e-09,2.626605878950458e-09,2.6315899508270243e-09,2.6365740227035905e-09,2.6415580945801566e-09,2.646542166456723e-09,2.651526238333289e-09,2.656510310209855e-09,2.6614943820864214e-09,2.6664784539629876e-09,2.6714625258395538e-09,2.6764465977161216e-09,2.6814306695926878e-09,2.686414741469254e-09,2.69139881334582e-09,2.6963828852223863e-09,2.7013669570989525e-09,2.7063510289755187e-09,2.711335100852085e-09,2.716319172728651e-09,2.7213032446052173e-09,2.7262873164817835e-09,2.7312713883583497e-09,2.7362554602349175e-09,2.7412395321114837e-09,2.74622360398805e-09,2.751207675864616e-09,2.7561917477411822e-09,2.7611758196177484e-09,2.7661598914943146e-09,2.771143963370881e-09,2.776128035247447e-09,2.781112107124013e-09,2.7860961790005794e-09,2.791080250877147e-09,2.7960643227537134e-09,2.8010483946302796e-09,2.8060324665068458e-09,2.811016538383412e-09,2.816000610259978e-09,2.8209846821365443e-09,2.8259687540131105e-09,2.8309528258896767e-09,2.835936897766243e-09,2.840920969642809e-09,2.845905041519377e-09,2.850889113395943e-09,2.8558731852725093e-09,2.8608572571490755e-09,2.8658413290256417e-09,2.870825400902208e-09,2.875809472778774e-09,2.8807935446553402e-09,2.8857776165319064e-09,2.8907616884084726e-09,2.8957457602850388e-09,2.9007298321616066e-09,2.905713904038173e-09,2.910697975914739e-09,2.915682047791305e-09,2.9206661196678714e-09,2.9256501915444375e-09,2.9306342634210037e-09,2.93561833529757e-09,2.940602407174136e-09,2.9455864790507023e-09,2.9505705509272685e-09,2.9555546228038347e-09,2.9605386946804025e-09,2.9655227665569687e-09,2.970506838433535e-09,2.975490910310101e-09,2.9804749821866673e-09,2.9854590540632334e-09,2.9904431259397996e-09,2.995427197816366e-09,3.000411269692932e-09,3.005395341569498e-09,3.0103794134460644e-09,3.0153634853226322e-09,3.0203475571991984e-09,3.0253316290757646e-09,3.0303157009523308e-09,3.035299772828897e-09,3.040283844705463e-09,3.0452679165820293e-09,3.0502519884585955e-09,3.0552360603351617e-09,3.060220132211728e-09,3.065204204088294e-09,3.070188275964862e-09,3.075172347841428e-09,3.0801564197179943e-09,3.0851404915945605e-09,3.0901245634711267e-09,3.095108635347693e-09,3.100092707224259e-09,3.1050767791008252e-09,3.1100608509773914e-09,3.1150449228539576e-09,3.1200289947305238e-09,3.1250130666070916e-09,3.129997138483658e-09,3.134981210360224e-09,3.13996528223679e-09,3.1449493541133564e-09,3.1499334259899226e-09,3.1549174978664887e-09,3.159901569743055e-09,3.164885641619621e-09,3.1698697134961873e-09,3.1748537853727535e-09,3.1798378572493197e-09,3.1848219291258875e-09,3.1898060010024537e-09,3.19479007287902e-09,3.199774144755586e-09,3.2047582166321523e-09,3.2097422885087185e-09,3.2147263603852846e-09,3.219710432261851e-09,3.224694504138417e-09,3.229678576014983e-09,3.2346626478915494e-09,3.2396467197681172e-09,3.2446307916446834e-09,3.2496148635212496e-09,3.2545989353978158e-09,3.259583007274382e-09,3.264567079150948e-09,3.2695511510275143e-09,3.2745352229040805e-09,3.2795192947806467e-09,3.284503366657213e-09,3.289487438533779e-09,3.294471510410347e-09,3.299455582286913e-09,3.3044396541634793e-09,3.3094237260400455e-09,3.3144077979166117e-09,3.319391869793178e-09,3.324375941669744e-09,3.3293600135463102e-09,3.3343440854228764e-09,3.3393281572994426e-09,3.344312229176009e-09,3.3492963010525766e-09,3.354280372929143e-09,3.359264444805709e-09,3.364248516682275e-09,3.3692325885588414e-09,3.3742166604354076e-09,3.3792007323119738e-09,3.38418480418854e-09,3.389168876065106e-09,3.3941529479416723e-09,3.3991370198182385e-09,3.4041210916948047e-09,3.4091051635713725e-09,3.4140892354479387e-09,3.419073307324505e-09,3.424057379201071e-09,3.4290414510776373e-09,3.4340255229542035e-09,3.4390095948307697e-09,3.443993666707336e-09,3.448977738583902e-09,3.4539618104604682e-09,3.4589458823370344e-09,3.4639299542136022e-09,3.4689140260901684e-09,3.4738980979667346e-09,3.478882169843301e-09,3.483866241719867e-09,3.488850313596433e-09,3.4938343854729994e-09,3.4988184573495655e-09,3.5038025292261317e-09,3.508786601102698e-09,3.513770672979264e-09,3.518754744855832e-09,3.523738816732398e-09,3.5287228886089643e-09,3.5337069604855305e-09,3.5386910323620967e-09,3.543675104238663e-09,3.548659176115229e-09,3.5536432479917953e-09,3.5586273198683614e-09,3.5636113917449276e-09,3.568595463621494e-09,3.5735795354980617e-09,3.578563607374628e-09,3.583547679251194e-09,3.5885317511277602e-09,3.5935158230043264e-09,3.5984998948808926e-09,3.6034839667574588e-09,3.608468038634025e-09,3.613452110510591e-09,3.6184361823871573e-09,3.6234202542637235e-09,3.6284043261402897e-09,3.6333883980168575e-09,3.6383724698934237e-09,3.64335654176999e-09,3.648340613646556e-09,3.6533246855231223e-09,3.6583087573996885e-09,3.6632928292762547e-09,3.668276901152821e-09,3.673260973029387e-09,3.6782450449059532e-09,3.6832291167825194e-09,3.6882131886590873e-09,3.6931972605356534e-09,3.6981813324122196e-09,3.703165404288786e-09,3.708149476165352e-09,3.713133548041918e-09,3.7181176199184844e-09,3.7231016917950506e-09,3.728085763671617e-09,3.733069835548183e-09,3.738053907424749e-09,3.743037979301317e-09,3.748022051177883e-09,3.753006123054449e-09,3.7579901949310155e-09,3.762974266807582e-09,3.767958338684148e-09,3.772942410560714e-09,3.77792648243728e-09,3.7829105543138465e-09,3.787894626190413e-09,3.792878698066979e-09,3.797862769943547e-09,3.802846841820113e-09,3.807830913696679e-09,3.812814985573245e-09,3.8177990574498114e-09,3.822783129326378e-09,3.827767201202944e-09,3.83275127307951e-09,3.837735344956076e-09,3.842719416832642e-09,3.8477034887092085e-09,3.852687560585775e-09,3.8576716324623426e-09,3.862655704338909e-09,3.867639776215475e-09,3.872623848092041e-09,3.877607919968607e-09,3.8825919918451735e-09,3.88757606372174e-09,3.892560135598306e-09,3.897544207474872e-09,3.902528279351438e-09,3.9075123512280044e-09,3.912496423104572e-09,3.9174804949811385e-09,3.922464566857705e-09,3.927448638734271e-09,3.932432710610837e-09,3.937416782487403e-09,3.942400854363969e-09,3.9473849262405356e-09,3.952368998117102e-09,3.957353069993668e-09,3.962337141870234e-09,3.967321213746802e-09,3.972305285623368e-09,3.977289357499934e-09,3.9822734293765005e-09,3.987257501253067e-09,3.992241573129633e-09,3.997225645006199e-09,4.002209716882765e-09,4.0071937887593315e-09,4.012177860635898e-09,4.017161932512464e-09,4.022146004389032e-09,4.027130076265598e-09,4.032114148142164e-09,4.03709822001873e-09,4.0420822918952964e-09,4.047066363771863e-09,4.052050435648429e-09,4.057034507524995e-09,4.062018579401561e-09,4.067002651278127e-09,4.0719867231546935e-09,4.07697079503126e-09,4.0819548669078276e-09,4.086938938784394e-09,4.09192301066096e-09,4.096907082537526e-09,4.101891154414092e-09,4.1068752262906585e-09,4.111859298167225e-09,4.116843370043791e-09,4.121827441920357e-09,4.126811513796923e-09,4.1317955856734894e-09,4.136779657550057e-09,4.1417637294266235e-09,4.14674780130319e-09,4.151731873179756e-09,4.156715945056322e-09,4.161700016932888e-09,4.166684088809454e-09,4.171668160686021e-09,4.176652232562587e-09,4.181636304439153e-09,4.186620376315719e-09,4.191604448192287e-09,4.196588520068853e-09,4.201572591945419e-09,4.2065566638219855e-09,4.211540735698552e-09,4.216524807575118e-09,4.221508879451684e-09,4.22649295132825e-09,4.2314770232048165e-09,4.236461095081383e-09,4.241445166957949e-09,4.246429238834517e-09,4.251413310711083e-09,4.256397382587649e-09,4.261381454464215e-09,4.2663655263407814e-09,4.271349598217348e-09,4.276333670093914e-09,4.28131774197048e-09,4.286301813847046e-09,4.291285885723612e-09,4.2962699576001786e-09,4.301254029476745e-09,4.306238101353313e-09,4.311222173229879e-09,4.316206245106445e-09,4.321190316983011e-09,4.326174388859577e-09,4.3311584607361435e-09,4.33614253261271e-09,4.341126604489276e-09,4.346110676365842e-09,4.351094748242408e-09,4.3560788201189745e-09,4.361062891995542e-09,4.3660469638721085e-09,4.371031035748675e-09,4.376015107625241e-09,4.380999179501807e-09,4.385983251378373e-09,4.3909673232549394e-09,4.395951395131506e-09,4.400935467008072e-09,4.405919538884638e-09,4.410903610761204e-09,4.415887682637772e-09,4.420871754514338e-09,4.425855826390904e-09,4.4308398982674706e-09,4.435823970144037e-09,4.440808042020603e-09,4.445792113897169e-09,4.450776185773735e-09,4.4557602576503015e-09,4.460744329526868e-09,4.465728401403434e-09,4.470712473280002e-09,4.475696545156568e-09,4.480680617033134e-09,4.4856646889097e-09,4.4906487607862665e-09,4.495632832662833e-09,4.500616904539399e-09,4.505600976415965e-09,4.510585048292531e-09,4.515569120169097e-09,4.5205531920456636e-09,4.52553726392223e-09,4.530521335798798e-09,4.535505407675364e-09,4.54048947955193e-09,4.545473551428496e-09,4.550457623305062e-09,4.5554416951816285e-09,4.560425767058195e-09,4.565409838934761e-09,4.570393910811327e-09,4.575377982687893e-09,4.5803620545644595e-09,4.585346126441027e-09,4.5903301983175935e-09,4.59531427019416e-09,4.600298342070726e-09,4.605282413947292e-09,4.610266485823858e-09,4.6152505577004244e-09,4.620234629576991e-09,4.625218701453557e-09,4.630202773330123e-09,4.635186845206689e-09,4.640170917083257e-09,4.645154988959823e-09,4.650139060836389e-09,4.6551231327129556e-09,4.660107204589522e-09,4.665091276466088e-09,4.670075348342654e-09,4.67505942021922e-09,4.6800434920957865e-09,4.685027563972353e-09,4.690011635848919e-09,4.694995707725487e-09,4.699979779602053e-09,4.704963851478619e-09,4.709947923355185e-09,4.7149319952317515e-09,4.719916067108318e-09,4.724900138984884e-09,4.72988421086145e-09,4.734868282738016e-09,4.739852354614582e-09,4.744836426491149e-09,4.749820498367715e-09,4.754804570244283e-09,4.759788642120849e-09,4.764772713997415e-09,4.769756785873981e-09,4.774740857750547e-09,4.7797249296271135e-09,4.78470900150368e-09,4.789693073380246e-09,4.794677145256812e-09,4.799661217133378e-09,4.8046452890099445e-09,4.809629360886512e-09,4.8146134327630785e-09,4.819597504639645e-09,4.824581576516211e-09,4.829565648392777e-09,4.834549720269343e-09,4.8395337921459094e-09,4.844517864022476e-09,4.849501935899042e-09,4.854486007775608e-09,4.859470079652174e-09,4.864454151528742e-09,4.869438223405308e-09,4.874422295281874e-09,4.879406367158441e-09,4.884390439035007e-09,4.889374510911573e-09,4.894358582788139e-09,4.899342654664705e-09,4.9043267265412715e-09,4.909310798417838e-09,4.914294870294404e-09,4.919278942170972e-09,4.924263014047538e-09
3.5014284240455514e-05,3.5016995330287094e-05,3.5025129019482575e-05,3.503868656720913e-05,3.505767007229491e-05,3.5082082473553344e-05,3.511192755023729e-05,3.514720992262299e-05,3.518793505272401e-05,3.523410924513531e-05,3.528573964800735e-05,3.534283425415075e-05,3.540540190227129e-05,3.547345227833564e-05,3.5546995917068155e-05,3.562604420357867e-05,3.571060937512162e-05,3.5800704522987085e-05,3.589634359452348e-05,3.59975413952927e-05,3.610431359135794e-05,3.621667671170414e-05,3.6334648150792e-05,3.645824617124574e-05,3.6587489906674744e-05,3.6722399364629926e-05,3.6862995429695175e-05,3.700929986671398e-05,3.716133532415246e-05,3.7319125337598454e-05,3.748269433339774e-05,3.765206763242831e-05,3.782727145401195e-05,3.8008332919965494e-05,3.8195280058790526e-05,3.838814181000429e-05,3.8586948028609743e-05,3.879172948970847e-05,3.9002517893255e-05,3.921934586895351e-05,3.944224698129916e-05,3.9671255734762746e-05,3.990640757912095e-05,4.0147738914932646e-05,4.039528709916165e-05,4.064909045094724e-05,4.0909188257523513e-05,4.1175620780287355e-05,4.144842926101798e-05,4.172765592824681e-05,4.201334400377966e-05,4.230553770937301e-05,4.2604282273563885e-05,4.290962393865499e-05,4.322160996785747e-05,4.3540288652588987e-05,4.386570931993293e-05,4.4197922340255465e-05,4.453697913498474e-05,4.488293218455127e-05,4.52358350364927e-05,4.559574231372232e-05,4.5962709722963536e-05,4.633679406335238e-05,4.671805323520678e-05,4.710654624896739e-05,4.7502333234308684e-05,4.79054754494224e-05,4.831603529047611e-05,4.873407630124524e-05,4.915966318292387e-05,4.9592861804113636e-05,5.003373921099118e-05,5.048236363765888e-05,5.0938804516677066e-05,5.140313248978243e-05,5.1875419418791094e-05,5.235573839669136e-05,5.2844163758924346e-05,5.334077109485791e-05,5.384563725945192e-05,5.435884038511928e-05,5.488045989378431e-05,5.541057650913823e-05,5.594927226909661e-05,5.6496630538457705e-05,5.705273602176607e-05,5.7617674776382245e-05,5.8191534225760396e-05,5.877440317293617e-05,5.9366371814227295e-05,5.9967531753148184e-05,6.0577976014540665e-05,6.119779905892464e-05,6.182709679706806e-05,6.246596660478172e-05,6.31145073379364e-05,6.377281934771248e-05,6.444100449607338e-05,6.511916617147703e-05,6.580740930481812e-05,6.650584038560876e-05,6.721456747839976e-05,6.793370023944124e-05,6.866334993359132e-05,6.940362945146876e-05,7.015465332685757e-05,7.091653775436282e-05,7.168940060732213e-05,7.247336145597441e-05,7.326854158589029e-05,7.407506401666461e-05,7.489305352087548e-05,7.572263664331347e-05,7.656394172048094e-05,7.741709890036815e-05,7.828224016250591e-05,7.915949933830046e-05,8.004901213165093e-05,8.095091613985608e-05,8.18653508748091e-05,8.279245778448732e-05,8.373238027473925e-05,8.468526373137035e-05,8.56512555425331e-05,8.663050512142407e-05,8.762316392928991e-05,8.862938549875e-05,8.964932545743383e-05,9.068314155193903e-05,9.17309936721162e-05,9.279304387568004e-05,9.386945641315347e-05,9.49603977531455e-05,9.606603660797182e-05,9.718654395961493e-05,9.832209308603492e-05,9.947285958782843e-05,0.00010063902141524527,0.00010182075889556325,0.00010301825476082628,0.00010423169417595078,0.00010546126476720207,0.00010670715665104997,0.00010796956246340292,0.000109248677389226,0.0001105446991925492,0.00011185782824687225,0.000113188267565962,0.0001145362228350581,0.00011590190244248339,0.00011728551751166949,0.00011868728193359355,0.00012010741239964595,0.00012154612843491749,0.0001230036524319225,0.00012448020968475776,0.00012597602842370366,0.00012749133985027154,0.00012902637817270904,0.00013058138064195253,0.00013215658758805566,0.00013375224245707615,0.00013536859184844422,0.0001370058855528042,0.00013866437659034692,0.00014034432124963143,0.0001420459791269032,0.0001437696131659141,0.00014551548969825377,0.00014728387848419346,0.0001490750527540522,0.00015088928925008802,0.0001527268682689245,0.00015458807370451554,0.00015647319309165483,0.00015838251765004093,0.0001603163423288975,0.00016227496585216098,0.00016425869076424002,0.00016626782347635508,0.00016830267431345984,0.00017036355756175838,0.0001724507915168251,0.00017456469853232258,0.00017670560506934395,0.00017887384174636593,0.00018106974338984085,0.00018329364908541653,0.00018554590222980412,0.0001878268505832964,0.00019013684632294538,0.00019247624609640393,0.00019484541107644667,0.00019724470701616776,0.0001996745043048781,0.0002021351780246904,0.00020462710800782204,0.00020715067889460584,0.0002097062801922287,0.00021229430633420399,0.00021491515674057935,0.00021756923587890357,0.00022025695332594501,0.00022297872383018086,0.0002257349673750663,0.0002285261092430825,0.0002313525800805849,0.00023421481596346602,0.0002371132584636119,0.00024004835471619837,0.0002430205574878176,0.000246030325245449,0.0002490781222262822,0.00025216441850840245,0.00025528969008235434,0.0002584544189235875,0.00026165909306579674,0.0002649042066751698,0.00026819026012554694,0.00027151776007451226,0.0002748872195404172,0.0002782991579803628,0.0002817541013691273,0.000285252582279078,0.00028879513996105815,0.0002923823204262736,0.0002960146765291791,0.0002996927680513859,0.00030341716178660023,0.0003071884316266047,0.0003110071586482804,0.00031487393120171987,0.00031878934499939205,0.0003227540032064193,0.00032676851653194716,0.0003308335033216354,0.0003349495896512773,0.0003391174094215623,0.0003433376044539971,0.0003476108245879979,0.0003519377277791567,0.00035631898019872167,0.00036075525633427226,0.000365247239091629,0.00036979561989800166,0.00037440109880639173,0.00037906438460126173,0.00038378619490548075,0.0003885672562885907,0.00039340830437635516,0.0003983100839616654,0.0004032733491167635,0.0004082988633068446,0.00041338739950502496,0.0004185397403087045,0.00042375667805732466,0.00042903901495157425,0.0004343875631739927,0.0004398031450110753,0.00044528659297681997,0.0004508387499377674,0.000456460469239555,0.0004621526148349946,0.0004679160614136733,0.0004737516945331356,0.0004796604107516243,0.00048564311776242325,0.0004917007345298072,0.0004978341914266194,0.0005040444303735128,0.0005103324049798302,0.0005166990806861982,0.0005231454349088068,0.0005296724571854272,0.0005362811493231521,0.0005429725255479206,0.0005497476126558193,0.0005566074501661728,0.0005635530904764695,0.0005705855990191355,0.0005777060544201486,0.0005849155486595659,0.0005922151872339289,0.0005996060893206131,0.0006070893879441254,0.0006146662301443422,0.0006223377771467845,0.0006301052045348651,0.0006379697024241866,0.0006459324756389008,0.0006539947438901366,0.0006621577419565387,0.0006704227198669201,0.0006787909430850764,0.0006872636926967685,0.0006958422655988827,0.0007045279746908368,0.0007133221490682115,0.0007222261342186487,0.0007312412922200473,0.0007403690019410804,0.0007496106592440223,0.0007589676771899949,0.0007684414862465454,0.0007780335344976831,0.0007877452878563421,0.0007975782302793047,0.0008075338639846393,0.0008176137096716329,0.0008278193067432865,0.0008381522135313858,0.0008486140075241583,0.0008592062855965618,0.0008699306642432393,0.0008807887798141477,0.000891782288752884,0.0009029128678377637,0.0009141822144256733,0.0009255920466986867,0.0009371441039135347,0.0009488401466539143,0.000960681957085661,0.0009726713392148791,0.0009848101191489325,0.0009971001453604985,0.0010095432889545438,0.0010221414439383493,0.00103489652749463,0.0010478104802576767,0.0010608852665926788,0.0010741228748781671,0.0010875253177916337,0.0011010946325983688,0.0011148328814435614,0.001128742151647631,0.00114282455600491,0.001157082233085637,0.0011715173475413197,0.001186132090413526,0.0012009286794460719,0.001215909359400702,0.0012310764023762523,0.0012464321081313873,0.001261978804410822,0.0012777188472752282,0.0012936546214347107,0.001309788540585985,0.0013261230477532224,0.0013426606156326593,0.0013594037469409472,0.0013763549747673135,0.001393516862929546,0.0014108920063338594,0.0014284830313386464,0.0014462925961221836,0.0014643233910542819,0.0014825781390719699,0.0015010595960591893,0.0015197705512305921,0.0015387138275194077,0.0015578922819695022,0.0015773088061315603,0.0015969663264635366,0.0016168678047352944,0.0016370162384375907,0.0016574146611952963,0.00167806614318507,0.0016989737915573217,0.0017201407508626513,0.0017415702034827482,0.0017632653700657302,0.001785229509966066,0.0018074659216890166,0.001829977943339719,0.0018527689530768055,0.0018758423695708101,0.001899201652467198,0.0019228503028540763,0.0019467918637348202,0.001971029920505349,0.0019955681014363234,0.0020204100781601834,0.0020455595661630576,0.0020710203252816703,0.0020967961602051505,0.002122890920981885,0.002149308503531355,0.0021760528501611116,0.0022031279500887312,0.002230537839969046,0.0022582866044263696,0.002286378376592055,0.0023148173386471696,0.002343607722370494,0.0023727538096917156,0.0024022599332500206,0.0024321304769579603,0.0024623698765707113,0.0024929826202606995,0.00252397324919769,0.002555346358134296,0.0025871065959969337,0.0026192586664823317,0.0026518073286595483,0.0026847573975774955,0.0027181137448780593,0.00275188129941487,0.002786065047877611,0.0028206700354219787,0.002855701366305342,0.0028911642045280563,0.002927063774480469,0.00296340536159565,0.003000194313007852,0.0030374360382167346,0.0030751360097573503,0.0031132997638758583,0.003151932901211139,0.0031910410874820953,0.0032306300541808377,0.0032707055992717226,0.0033112735878961536,0.003352339953083229,0.0033939106964663308,0.0034359918890054146,0.0034785896717153793,0.003521710256400004,0.003565359926391992,0.0036095450372988043,0.0036542720177542634,0.0036995473701760904,0.0037453776715293255,0.003791769574095491,0.0038387298062476168,0.0038862651732311385,0.003934382557950593,0.00398308892176198,0.004032391305271151,0.004082296829137641,0.004132812694884563,0.004183946185713963,0.00423570466732798,0.004288095588755748,0.004341126483185708,0.004394804968803769,0.004449138749636886,0.004504135616402253,0.00455980344736191,0.0046161502091829395,0.004673183957802941,0.004730912839300906,0.004789345090773453,0.004848489041216342,0.004908353112411137,0.00496894581981696,0.00503027577346759,0.005092351678873282,0.005155182337927742,0.005218776649819937,0.005283143611950715,0.0053482923208542,0.005414231973123794,0.005480971866342785,0.005548521400019507,0.0056168900765267695,0.005686087502045642,0.005756123387513557,0.005827007549576359,0.005898749911544432,0.005971360504352695,0.0060448494675243575,0.006119227050138422,0.006194503611800481,0.006270689623617277,0.0063477956691742185,0.006425832445516186,0.006504810764131283,0.006584741551937511,0.00666563585227202,0.006747504825883079,0.00683035975192419,0.006914212028950698,0.006999073175918263,0.007084954833183328,0.007171868763505109,0.007259826853049302,0.007348841112393047,0.007438923677530892,0.007530086810881848,0.007622342902297102,0.0077157044700681444,0.007810184161935357,0.007905794756096457,0.00800254916221492,0.008100460422427994,0.008199541712353797,0.008299806342098046,0.008401267757258975,0.008503939539931456,0.008607835409708903,0.00871296922468356,0.008819354982444462,0.008927006821072808,0.009035939020134456,0.009146166001669601,0.009257702331178546,0.009370562718604165,0.009484762019309985,0.009600315235054049,0.00971723751495802,0.009835544156471072,0.00995525060632858,0.010076372461504841,0.01019892547015964,0.010322925532578608,0.010448388702106218,0.010575331186071837,0.010703769346707923,0.010833719702060358,0.010965198926890117,0.011098223853565898,0.011232811472947987,0.011368978935261643,0.011506743550960895,0.011646122791581458,0.011787134290582441,0.011929795844176885,0.012074125412149866,0.012220141118664485,0.01236786125305459,0.0125173042706044,0.012668488793313736,0.012821433610649304,0.012976157680280553,0.013132680128800537,0.013291020252430195,0.013451197517706829,0.01361323156215484,0.013777142194939255,0.01394294939750118,0.014110673324174068,0.014280334302781264,0.014451952835213359,0.014625549597985298,0.014801145442772452,0.014978761396924976,0.015158418663960374,0.015340138624032735,0.015523942834379174,0.01570985302974191,0.015897891122766024,0.01608807920437152,0.01628043954410044,0.016474994590436512,0.016671766971098623,0.016870779493305895,0.017072055144014792,0.017275617090127218,0.017481488678668864,0.017689693436937524,0.017900255072619917,0.018113197473877914,0.0183285447094017,0.018546321028430304,0.01876655086073902,0.018989258816592212,0.019214469686661448,0.01944220844190821,0.019672500233430527,0.019905370392272817,0.02014084442919834,0.020378948034423576,0.02061970707731394,0.020863147606040307,0.021109295847195255,0.02135817820536915,0.021609821262684615,0.0218642517782896,0.022121496687807572,0.022381583102744917,0.02264453830985466,0.022910389770455987,0.023179165119708703,0.02345089216584255,0.023725598889340588,0.024003313442075593,0.02428406414640004,0.024567879494188087,0.024854788145829143,0.025144818929173484,0.025438000838428208,0.025734363033003946,0.0260339348363108,0.026336745734504424,0.0266428253751811,0.026952203566020533,0.02726491027337806,0.027580975620823713,0.027900429887629034,0.028223303507201095,0.028549627065462886,0.028879431299180684,0.02921274709423686,0.02954960548384955,0.0298900376467365,0.030234074905226154,0.030581748723312367,0.03093309070465503,0.03128813259052562,0.031646906257697165,0.03200944371627888,0.03237577710749623,0.03274593870141471,0.03311996089460836,0.03349787620777375,0.03387971728328758,0.03426551688270972,0.034655307884230886,0.03504912328006568,0.03544699617379042,0.03584895977762684,0.03625504740967127,0.03666529249106987,0.037079728543140136,0.037498389184439554,0.03792130812778034,0.03834851917719288,0.03878005622483603,0.039215953247856844,0.03965624430519877,0.040100963534359546,0.0405501451480995,0.04100382343110044,0.041462032736576684,0.0419248074828376,0.04239218214980412,0.04286419127547821,0.04334086945236809,0.04382225132386872,0.044308371580598166,0.04479926495669306,0.045294966226061266,0.045795510198594576,0.04630093171634275,0.04681126564964837,0.04732654689324573,0.047846810362323154,0.04837209098855124,0.04890242371607772,0.049437843497490606,0.04997838528975005,0.05052408405009243,0.051074974731905164,0.051631092280575816,0.05219247162931745,0.052759147694968686,0.05333115537377392,0.053908529537142515,0.054491305027389664,0.055079516653460565,0.05567319918663982,0.05627238735624617,0.05687711584531747,0.05748741928628414,0.05810333225663491,0.058724889274577544,0.05935212479469251,0.059985073203587015,0.0606237688155461,0.06126824586818601,0.06191853851811002,0.06257468083657024,0.06323670680513523,0.06390465031136709,0.06457854514451018,0.06525842499119058,0.06594432343113284,0.06663627393289209,0.06733430984960473,0.06803846441476145,0.06874877073800105,0.06946526180093092,0.07018797045297254,0.07091692940723728,0.07165217123643139,0.07239372836879539,0.07314163308407638,0.0738959175095382,0.07465661361600902,0.07542375321397057,0.07619736794968839,0.07697748930138734,0.07776414857547202,0.07855737690279604,0.07935720523498056,0.08016366434078373,0.08097678480252414,0.08179659701255865,0.08262313116981637,0.08345641727639179,0.08429648513419703,0.085143364341675,0.08599708429057668,0.08685767416280193,0.08772516292730548,0.08859957933707185,0.08948095192615732,0.090369309006802,0.0912646786666136,0.09216708876582339,0.09307656693461439,0.09399314057052628,0.09491683683593366,0.09584768265560334,0.09678570471432617,0.09773092945463033,0.09868338307457143,0.09964309152560445,0.10061008051053479,0.10158437548155193,0.10256600163834428,0.10355498392629654,0.10455134703477054,0.10555511539546825,0.10656631318087975,0.10758496430281425,0.10861109241101498,0.10964472089185955,0.11068587286714293,0.11173457119294669,0.1127908384585912,0.1138546969856721,0.11492616882718192,0.11600527576671395,0.11709203931775153,0.11818648072303839,0.11928862095403367,0.12039848071044805,0.12151608041986266,0.12264144023742797,0.12377458004564434,0.12491551945422213,0.12606427780002075,0.12722087414706626,0.12838532728664617,0.12955765573748182,0.13073787774597467,0.1319260112865289,0.1331220740619467,0.13432608350389633,0.13553805677345143,0.13675801076170063,0.1379859620904264,0.13922192711285103,0.14046592191444934,0.14171796231382688,0.14297806386366121,0.14424624185170593,0.14552251130185578,0.14680688697527067,0.14809938337155812,0.14940001473001252,0.15070879503090864,0.15202573799684904,0.1533508570941631,0.15468416553435685,0.15602567627561076,0.15737540202432548,0.15873335523671178,0.1600995481204261,0.16147399263624657,0.16285670049979065,0.16424768318327165,0.1656469519172915,0.1670545176926706,0.16847039126231045,0.1698945831430893,0.17132710361778805,0.17276796273704542,0.17421717032134063,0.1756747359630013,0.1771406690282362,0.17861497865919043,0.18009767377602134,0.18158876307899413,0.183088255050595,0.1845961579576614,0.18611247985352636,0.18763722858017637,0.18917041177042146,0.19071203685007557,0.19226211104014557,0.19382064135902838,0.1953876346247143,0.19696309745699478,0.19854703627967424,0.200139457322784,0.2017403666247974,0.20334977003484442,0.20496767321492487,0.2065940816421197,0.2082290006107976,0.20987243523481747,0.21152439044972488,0.21318487101494135,0.21485388151594595,0.2165314263664479,0.21821750981054927,0.21991213592489697,0.22161530862082324,0.2233270316464732,0.22504730858891983,0.22677614287626427,0.22851353777972178,0.2302594964156918,0.23201402174781233,0.2337771165889973,0.23554878360345619,0.2373290253086965,0.239117844077507,0.24091524213992233,0.2427212215851679,0.24453578436358556,0.24635893228853772,0.24819066703829218,0.2500309901578848,0.2518799030609615,0.2537374070315982,0.2556035032260996,0.25747819267477456,0.25936147628369033,0.2612533548364038,0.2631538289956701,0.26506289930512844,0.26698056619096505,0.2689068299635536,0.2708416908190715,0.2727851488410949,0.2747372040021687,0.27669785616535547,0.27866710508575987,0.28064495041203075,0.28263139168784107,0.2846264283533436,0.2866300597466058,0.2886422851050202,0.29066310356669445,0.2926925141718176,0.29473051586400556,0.2967771074916239,0.2988322878090896,0.30089605547815124,0.30296840906914774,0.30504934706224707,0.30713886784866357,0.30923696973185505,0.31134365092870003,0.3134589095706549,0.31558274370489214,0.3177151512954184,0.3198561302241747,0.32200567829211735,0.3241637932202808,0.32633047265082316,0.32850571414805263,0.330689515199439,0.33288187321660545,0.33508278553630644,0.3372922494213877,0.3395102620617306,0.34173682057518195,0.3439719220084673,0.3462155633380906,0.34846774147121845,0.35072845324655094,0.3529976954351787,0.35527546474142596,0.3575617578036817,0.3598565711952165,0.3621599014249887,0.36447174493843804,0.3667920981182667,0.36912095728521044,0.37145831869879836,0.3738041785581015,0.37615853300247165,0.3785213781122703,0.3808927099095879,0.38327252435895315,0.38566081736803504,0.38805758478833347,0.39046282241586494,0.392876525991837,0.39529869120331684,0.39772931368389236,0.4001683890143247,0.4026159127231963,0.4050718802875492,0.4075362871335197,0.41000912863696665,0.41249040012409166,0.41498009687205695,0.4174782141095955,0.4199847470176177,0.42249969072981164,0.42502304033324106,0.42755479086893666,0.4300949373324847,0.43264347467461134,0.43520039780176334,0.4377657015766853,0.4403393808189937,0.44292143030574677,0.44551184477201433,0.44811061891144094,0.45071774737681036,0.45333322478060467,0.45595704569556317,0.4585892046552385,0.4612296961545502,0.4638785146503377,0.4665356545619118,0.4692011102716033,0.47187487612531115,0.4745569464330503,0.4772473154694967,0.47994597747453277,0.4826529266537915,0.4853681571791996,0.48809166318952035,0.49082343879089624,0.49356347805739037,0.4963117750315281,0.4990683237248381,0.5018331181183937,0.5046061521633536,0.5073874197815027,0.5101769148657933,0.512974631280886,0.5157805628636909,0.5185947034239088,0.5214170467445738,0.5242475865825936,0.5270863166692937,0.5299332307109589,0.5327883223893766,0.5356515853623813,0.5385230132643981,0.5414025997069868,0.5442903382793883,0.5471862225490697,0.5500902460622711,0.5530024023445519,0.5559226849013392,0.5588510872184759,0.5617876027627687,0.5647322249825389,0.5676849473081719,0.5706457631526677,0.5736146659121932,0.5765916489666332,0.5795767056801443,0.5825698294017071,0.5855710134656806,0.5885802511923576,0.5915975358885176,0.594622860847985,0.597656219352183,0.6006976046706928,0.603747010061808,0.6068044287730946,0.6098698540419478,0.612943279096152,0.6160246971544374,0.6191141014270415,0.622211485116268,0.6253168414170466,0.628430163517493,0.6315514445994708,0.6346806778391495,0.6378178564075684,0.640962973471195,0.644116022192487,0.6472769957304539,0.6504458872412174,0.6536226898785721,0.656807396794547,0.6599999999998909,0.656807396794547,0.6536226898785721,0.6504458872412174,0.6472769957304539,0.644116022192487,0.640962973471195,0.6378178564075684,0.6346806778391495,0.6315514445994708,0.628430163517493,0.6253168414170466,0.622211485116268,0.6191141014270415,0.6160246971544374,0.612943279096152,0.6098698540419478,0.6068044287730946,0.603747010061808,0.6006976046706928,0.597656219352183,0.594622860847985,0.5915975358885176,0.5885802511923576,0.5855710134656806,0.5825698294017071,0.5795767056801443,0.5765916489666332,0.5736146659121932,0.5706457631526677,0.5676849473081719,0.5647322249825389,0.5617876027627687,0.5588510872184759,0.5559226849013392,0.5530024023445519,0.5500902460622711,0.5471862225490697,0.5442903382793883,0.5414025997069868,0.5385230132643981,0.5356515853623813,0.5327883223893766,0.5299332307109589,0.5270863166692937,0.5242475865825936,0.5214170467445738,0.5185947034239088,0.5157805628636909,0.512974631280886,0.5101769148657933,0.5073874197815027,0.5046061521633536,0.5018331181183937,0.4990683237248381,0.4963117750315281,0.49356347805739037,0.49082343879089624,0.48809166318952035,0.4853681571791996,0.4826529266537915,0.47994597747453277,0.4772473154694967,0.4745569464330503,0.47187487612531115,0.4692011102716033,0.4665356545619118,0.4638785146503377,0.4612296961545502,0.4585892046552385,0.45595704569556317,0.45333322478060467,0.45071774737681036,0.44811061891144094,0.44551184477201433,0.44292143030574677,0.4403393808189937,0.4377657015766853,0.43520039780176334,0.43264347467461134,0.4300949373324847,0.42755479086893666,0.42502304033324106,0.42249969072981164,0.4199847470176177,0.4174782141095955,0.41498009687205695,0.41249040012409166,0.41000912863696665,0.4075362871335197,0.4050718802875492,0.4026159127231963,0.4001683890143247,0.39772931368389236,0.39529869120331684,0.392876525991837,0.39046282241586494,0.38805758478833347,0.38566081736803504,0.38327252435895315,0.3808927099095879,0.3785213781122703,0.37615853300247165,0.3738041785581015,0.37145831869879836,0.36912095728521044,0.3667920981182667,0.36447174493843804,0.3621599014249887,0.3598565711952165,0.3575617578036817,0.35527546474142596,0.3529976954351787,0.35072845324655094,0.34846774147121845,0.3462155633380906,0.3439719220084673,0.34173682057518195,0.3395102620617306,0.3372922494213877,0.33508278553630644,0.33288187321660545,0.330689515199439,0.32850571414805263,0.32633047265082316,0.3241637932202808,0.32200567829211735,0.3198561302241747,0.3177151512954184,0.31558274370489214,0.3134589095706549,0.31134365092870003,0.30923696973185505,0.30713886784866357,0.30504934706224707,0.30296840906914774,0.30089605547815124,0.2988322878090896,0.2967771074916239,0.29473051586400556,0.2926925141718176,0.29066310356669445,0.2886422851050202,0.2866300597466058,0.2846264283533436,0.28263139168784107,0.28064495041203075,0.27866710508575987,0.27669785616535547,0.2747372040021687,0.2727851488410949,0.2708416908190715,0.2689068299635536,0.26698056619096505,0.26506289930512844,0.2631538289956701,0.2612533548364038,0.25936147628369033,0.25747819267477456,0.2556035032260996,0.2537374070315982,0.2518799030609615,0.2500309901578848,0.24819066703829218,0.24635893228853772,0.24453578436358556,0.2427212215851679,0.24091524213992233,0.239117844077507,0.2373290253086965,0.23554878360345619,0.2337771165889973,0.23201402174781233,0.2302594964156918,0.22851353777972178,0.22677614287626427,0.22504730858891983,0.2233270316464732,0.22161530862082324,0.21991213592489697,0.21821750981054927,0.2165314263664479,0.21485388151594595,0.21318487101494135,0.21152439044972488,0.20987243523481747,0.2082290006107976,0.2065940816421197,0.20496767321492487,0.20334977003484442,0.2017403666247974,0.200139457322784,0.19854703627967424,0.19696309745699478,0.1953876346247143,0.19382064135902838,0.19226211104014557,0.19071203685007557,0.18917041177042146,0.18763722858017637,0.18611247985352636,0.1845961579576614,0.183088255050595,0.18158876307899413,0.18009767377602134,0.17861497865919043,0.1771406690282362,0.1756747359630013,0.17421717032134063,0.17276796273704542,0.17132710361778805,0.1698945831430893,0.16847039126231045,0.1670545176926706,0.1656469519172915,0.16424768318327165,0.16285670049979065,0.16147399263624657,0.1600995481204261,0.15873335523671178,0.15737540202432548,0.15602567627561076,0.15468416553435685,0.1533508570941631,0.15202573799684904,0.15070879503090864,0.14940001473001252,0.14809938337155812,0.14680688697527067,0.14552251130185578,0.14424624185170593,0.14297806386366121,0.14171796231382688,0.14046592191444934,0.13922192711285103,0.1379859620904264,0.13675801076170063,0.13553805677345143,0.13432608350389633,0.1331220740619467,0.1319260112865289,0.13073787774597467,0.12955765573748182,0.12838532728664617,0.12722087414706626,0.12606427780002075,0.12491551945422213,0.12377458004564434,0.12264144023742797,0.12151608041986266,0.12039848071044805,0.11928862095403367,0.11818648072303839,0.11709203931775153,0.11600527576671395,0.11492616882718192,0.1138546969856721,0.1127908384585912,0.11173457119294669,0.11068587286714293,0.10964472089185955,0.10861109241101498,0.10758496430281425,0.10656631318087975,0.10555511539546825,0.10455134703477054,0.10355498392629654,0.10256600163834428,0.10158437548155193,0.10061008051053479,0.09964309152560445,0.09868338307457143,0.09773092945463033,0.09678570471432617,0.09584768265560334,0.09491683683593366,0.09399314057052628,0.09307656693461439,0.09216708876582339,0.0912646786666136,0.090369309006802,0.08948095192615732,0.08859957933707185,0.08772516292730548,0.08685767416280193,0.08599708429057668,0.085143364341675,0.08429648513419703,0.08345641727639179,0.08262313116981637,0.08179659701255865,0.08097678480252414,0.08016366434078373,0.07935720523498056,0.07855737690279604,0.07776414857547202,0.07697748930138734,0.07619736794968839,0.07542375321397057,0.07465661361600902,0.0738959175095382,0.07314163308407638,0.07239372836879539,0.07165217123643139,0.07091692940723728,0.07018797045297254,0.06946526180093092,0.06874877073800105,0.06803846441476145,0.06733430984960473,0.06663627393289209,0.06594432343113284,0.06525842499119058,0.06457854514451018,0.06390465031136709,0.06323670680513523,0.06257468083657024,0.06191853851811002,0.06126824586818601,0.0606237688155461,0.059985073203587015,0.05935212479469251,0.058724889274577544,0.05810333225663491,0.05748741928628414,0.05687711584531747,0.05627238735624617,0.05567319918663982,0.055079516653460565,0.054491305027389664,0.053908529537142515,0.05333115537377392,0.052759147694968686,0.05219247162931745,0.051631092280575816,0.051074974731905164,0.05052408405009243,0.04997838528975005,0.049437843497490606,0.04890242371607772,0.04837209098855124,0.047846810362323154,0.04732654689324573,0.04681126564964837,0.04630093171634275,0.045795510198594576,0.045294966226061266,0.04479926495669306,0.044308371580598166,0.04382225132386872,0.04334086945236809,0.04286419127547821,0.04239218214980412,0.0419248074828376,0.041462032736576684,0.04100382343110044,0.0405501451480995,0.040100963534359546,0.03965624430519877,0.039215953247856844,0.03878005622483603,0.03834851917719288,0.03792130812778034,0.037498389184439554,0.037079728543140136,0.03666529249106987,0.03625504740967127,0.03584895977762684,0.03544699617379042,0.03504912328006568,0.034655307884230886,0.03426551688270972,0.03387971728328758,0.03349787620777375,0.03311996089460836,0.03274593870141471,0.03237577710749623,0.03200944371627888,0.031646906257697165,0.03128813259052562,0.03093309070465503,0.030581748723312367,0.030234074905226154,0.0298900376467365,0.02954960548384955,0.02921274709423686,0.028879431299180684,0.028549627065462886,0.028223303507201095,0.027900429887629034,0.027580975620823713,0.02726491027337806,0.026952203566020533,0.0266428253751811,0.026336745734504424,0.0260339348363108,0.025734363033003946,0.025438000838428208,0.025144818929173484,0.024854788145829143,0.024567879494188087,0.02428406414640004,0.024003313442075593,0.023725598889340588,0.02345089216584255,0.023179165119708703,0.022910389770455987,0.02264453830985466,0.022381583102744917,0.022121496687807572,0.0218642517782896,0.021609821262684615,0.02135817820536915,0.021109295847195255,0.020863147606040307,0.02061970707731394,0.020378948034423576,0.02014084442919834,0.019905370392272817,0.019672500233430527,0.01944220844190821,0.019214469686661448,0.018989258816592212,0.01876655086073902,0.018546321028430304,0.0183285447094017,0.018113197473877914,0.017900255072619917,0.017689693436937524,0.017481488678668864,0.017275617090127218,0.017072055144014792,0.016870779493305895,0.016671766971098623,0.016474994590436512,0.01628043954410044,0.01608807920437152,0.015897891122766024,0.01570985302974191,0.015523942834379174,0.015340138624032735,0.015158418663960374,0.014978761396924976,0.014801145442772452,0.014625549597985298,0.014451952835213359,0.014280334302781264,0.014110673324174068,0.01394294939750118,0.013777142194939255,0.01361323156215484,0.013451197517706829,0.013291020252430195,0.013132680128800537,0.012976157680280553,0.012821433610649304,0.012668488793313736,0.0125173042706044,0.01236786125305459,0.012220141118664485,0.012074125412149866,0.011929795844176885,0.011787134290582441,0.011646122791581458,0.011506743550960895,0.011368978935261643,0.011232811472947987,0.011098223853565898,0.010965198926890117,0.010833719702060358,0.010703769346707923,0.010575331186071837,0.010448388702106218,0.010322925532578608,0.01019892547015964,0.010076372461504841,0.00995525060632858,0.009835544156471072,0.00971723751495802,0.009600315235054049,0.009484762019309985,0.009370562718604165,0.009257702331178546,0.009146166001669601,0.009035939020134456,0.008927006821072808,0.008819354982444462,0.00871296922468356,0.008607835409708903,0.008503939539931456,0.008401267757258975,0.008299806342098046,0.008199541712353797,0.008100460422427994,0.00800254916221492,0.007905794756096457,0.007810184161935357,0.0077157044700681444,0.007622342902297102,0.007530086810881848,0.007438923677530892,0.007348841112393047,0.007259826853049302,0.007171868763505109,0.007084954833183328,0.006999073175918263,0.006914212028950698,0.00683035975192419,0.006747504825883079,0.00666563585227202,0.006584741551937511,0.006504810764131283,0.006425832445516186,0.0063477956691742185,0.006270689623617277,0.006194503611800481,0.006119227050138422,0.0060448494675243575,0.005971360504352695,0.005898749911544432,0.005827007549576359,0.005756123387513557,0.005686087502045642,0.0056168900765267695,0.005548521400019507,0.005480971866342785,0.005414231973123794,0.0053482923208542,0.005283143611950715,0.005218776649819937,0.005155182337927742,0.005092351678873282,0.00503027577346759,0.00496894581981696,0.004908353112411137,0.004848489041216342,0.004789345090773453,0.004730912839300906,0.004673183957802941,0.0046161502091829395,0.00455980344736191,0.004504135616402253,0.004449138749636886,0.004394804968803769,0.004341126483185708,0.004288095588755748,0.00423570466732798,0.004183946185713963,0.004132812694884563,0.004082296829137641,0.004032391305271151,0.00398308892176198,0.003934382557950593,0.0038862651732311385,0.0038387298062476168,0.003791769574095491,0.0037453776715293255,0.0036995473701760904,0.0036542720177542634,0.0036095450372988043,0.003565359926391992,0.003521710256400004,0.0034785896717153793,0.0034359918890054146,0.0033939106964663308,0.003352339953083229,0.0033112735878961536,0.0032707055992717226,0.0032306300541808377,0.0031910410874820953,0.003151932901211139,0.0031132997638758583,0.0030751360097573503,0.0030374360382167346,0.003000194313007852,0.00296340536159565,0.002927063774480469,0.0028911642045280563,0.002855701366305342,0.0028206700354219787,0.002786065047877611,0.00275188129941487,0.0027181137448780593,0.0026847573975774955,0.0026518073286595483,0.0026192586664823317,0.0025871065959969337,0.002555346358134296,0.00252397324919769,0.0024929826202606995,0.0024623698765707113,0.0024321304769579603,0.0024022599332500206,0.0023727538096917156,0.002343607722370494,0.0023148173386471696,0.002286378376592055,0.0022582866044263696,0.002230537839969046,0.0022031279500887312,0.0021760528501611116,0.002149308503531355,0.002122890920981885,0.0020967961602051505,0.0020710203252816703,0.0020455595661630576,0.0020204100781601834,0.0019955681014363234,0.001971029920505349,0.0019467918637348202,0.0019228503028540763,0.001899201652467198,0.0018758423695708101,0.0018527689530768055,0.001829977943339719,0.0018074659216890166,0.001785229509966066,0.0017632653700657302,0.0017415702034827482,0.0017201407508626513,0.0016989737915573217,0.00167806614318507,0.0016574146611952963,0.0016370162384375907,0.0016168678047352944,0.0015969663264635366,0.0015773088061315603,0.0015578922819695022,0.0015387138275194077,0.0015197705512305921,0.0015010595960591893,0.0014825781390719699,0.0014643233910542819,0.0014462925961221836,0.0014284830313386464,0.0014108920063338594,0.001393516862929546,0.0013763549747673135,0.0013594037469409472,0.0013426606156326593,0.0013261230477532224,0.001309788540585985,0.0012936546214347107,0.0012777188472752282,0.001261978804410822,0.0012464321081313873,0.0012310764023762523,0.001215909359400702,0.0012009286794460719,0.001186132090413526,0.0011715173475413197,0.001157082233085637,0.00114282455600491,0.001128742151647631,0.0011148328814435614,0.0011010946325983688,0.0010875253177916337,0.0010741228748781671,0.0010608852665926788,0.0010478104802576767,0.00103489652749463,0.0010221414439383493,0.0010095432889545438,0.0009971001453604985,0.0009848101191489325,0.0009726713392148791,0.000960681957085661,0.0009488401466539143,0.0009371441039135347,0.0009255920466986867,0.0009141822144256733,0.0009029128678377637,0.000891782288752884,0.0008807887798141477,0.0008699306642432393,0.0008592062855965618,0.0008486140075241583,0.0008381522135313858,0.0008278193067432865,0.0008176137096716329,0.0008075338639846393,0.0007975782302793047,0.0007877452878563421,0.0007780335344976831,0.0007684414862465454,0.0007589676771899949,0.0007496106592440223,0.0007403690019410804,0.0007312412922200473,0.0007222261342186487,0.0007133221490682115,0.0007045279746908368,0.0006958422655988827,0.0006872636926967685,0.0006787909430850764,0.0006704227198669201,0.0006621577419565387,0.0006539947438901366,0.0006459324756389008,0.0006379697024241866,0.0006301052045348651,0.0006223377771467845,0.0006146662301443422,0.0006070893879441254,0.0005996060893206131,0.0005922151872339289,0.0005849155486595659,0.0005777060544201486,0.0005705855990191355,0.0005635530904764695,0.0005566074501661728,0.0005497476126558193,0.0005429725255479206,0.0005362811493231521,0.0005296724571854272,0.0005231454349088068,0.0005166990806861982,0.0005103324049798302,0.0005040444303735128,0.0004978341914266194,0.0004917007345298072,0.00048564311776242325,0.0004796604107516243,0.0004737516945331356,0.0004679160614136733,0.0004621526148349946,0.000456460469239555,0.0004508387499377674,0.00044528659297681997,0.0004398031450110753,0.0004343875631739927,0.00042903901495157425,0.00042375667805732466,0.0004185397403087045,0.00041338739950502496,0.0004082988633068446,0.0004032733491167635,0.0003983100839616654,0.00039340830437635516,0.0003885672562885907,0.00038378619490548075,0.00037906438460126173,0.00037440109880639173,0.00036979561989800166,0.000365247239091629,0.00036075525633427226,0.00035631898019872167,0.0003519377277791567,0.0003476108245879979,0.0003433376044539971,0.0003391174094215623,0.0003349495896512773,0.0003308335033216354,0.00032676851653194716,0.0003227540032064193,0.00031878934499939205,0.00031487393120171987,0.0003110071586482804,0.0003071884316266047,0.00030341716178660023,0.0002996927680513859,0.0002960146765291791,0.0002923823204262736,0.00028879513996105815,0.000285252582279078,0.0002817541013691273,0.0002782991579803628,0.0002748872195404172,0.00027151776007451226,0.00026819026012554694,0.0002649042066751698,0.00026165909306579674,0.0002584544189235875,0.00025528969008235434,0.00025216441850840245,0.0002490781222262822,0.000246030325245449,0.0002430205574878176,0.00024004835471619837,0.0002371132584636119,0.00023421481596346602,0.0002313525800805849,0.0002285261092430825,0.0002257349673750663,0.00022297872383018086,0.00022025695332594501,0.00021756923587890357,0.00021491515674057935,0.00021229430633420399,0.0002097062801922287,0.00020715067889460584,0.00020462710800782204,0.0002021351780246904,0.0001996745043048781,0.00019724470701616776,0.00019484541107644667,0.00019247624609640393,0.00019013684632294538,0.0001878268505832964,0.00018554590222980412,0.00018329364908541653,0.00018106974338984085,0.00017887384174636593,0.00017670560506934395,0.00017456469853232258,0.0001724507915168251,0.00017036355756175838,0.00016830267431345984,0.00016626782347635508,0.00016425869076424002,0.00016227496585216098,0.0001603163423288975,0.00015838251765004093,0.00015647319309165483,0.00015458807370451554,0.0001527268682689245,0.00015088928925008802,0.0001490750527540522,0.00014728387848419346,0.00014551548969825377,0.0001437696131659141,0.0001420459791269032,0.00014034432124963143,0.00013866437659034692,0.0001370058855528042,0.00013536859184844422,0.00013375224245707615,0.00013215658758805566,0.00013058138064195253,0.00012902637817270904,0.00012749133985027154,0.00012597602842370366,0.00012448020968475776,0.0001230036524319225,0.00012154612843491749,0.00012010741239964595,0.00011868728193359355,0.00011728551751166949,0.00011590190244248339,0.0001145362228350581,0.000113188267565962,0.00011185782824687225,0.0001105446991925492,0.000109248677389226,0.00010796956246340292,0.00010670715665104997,0.00010546126476720207,0.00010423169417595078,0.00010301825476082628,0.00010182075889556325,0.00010063902141524527,9.947285958782843e-05,9.832209308603492e-05,9.718654395961493e-05,9.606603660797182e-05,9.49603977531455e-05,9.386945641315347e-05,9.279304387568004e-05,9.17309936721162e-05,9.068314155193903e-05,8.964932545743383e-05,8.862938549875e-05,8.762316392928991e-05,8.663050512142407e-05,8.56512555425331e-05,8.468526373137035e-05,8.373238027473925e-05,8.279245778448732e-05,8.18653508748091e-05,8.095091613985608e-05,8.004901213165093e-05,7.915949933830046e-05,7.828224016250591e-05,7.741709890036815e-05,7.656394172048094e-05,7.572263664331347e-05,7.489305352087548e-05,7.407506401666461e-05,7.326854158589029e-05,7.247336145597441e-05,7.168940060732213e-05,7.091653775436282e-05,7.015465332685757e-05,6.940362945146876e-05,6.866334993359132e-05,6.793370023944124e-05,6.721456747839976e-05,6.650584038560876e-05,6.580740930481812e-05,6.511916617147703e-05,6.444100449607338e-05,6.377281934771248e-05,6.31145073379364e-05,6.246596660478172e-05,6.182709679706806e-05,6.119779905892464e-05,6.0577976014540665e-05,5.9967531753148184e-05,5.9366371814227295e-05,5.877440317293617e-05,5.8191534225760396e-05,5.7617674776382245e-05,5.705273602176607e-05,5.6496630538457705e-05,5.594927226909661e-05,5.541057650913823e-05,5.488045989378431e-05,5.435884038511928e-05,5.384563725945192e-05,5.334077109485791e-05,5.2844163758924346e-05,5.235573839669136e-05,5.1875419418791094e-05,5.140313248978243e-05,5.0938804516677066e-05,5.048236363765888e-05,5.003373921099118e-05,4.9592861804113636e-05,4.915966318292387e-05,4.873407630124524e-05,4.831603529047611e-05,4.79054754494224e-05,4.7502333234308684e-05,4.710654624896739e-05,4.671805323520678e-05,4.633679406335238e-05,4.5962709722963536e-05,4.559574231372232e-05,4.52358350364927e-05,4.488293218455127e-05,4.453697913498474e-05,4.4197922340255465e-05,4.386570931993293e-05,4.3540288652588987e-05,4.322160996785747e-05,4.290962393865499e-05,4.2604282273563885e-05,4.230553770937301e-05,4.201334400377966e-05,4.172765592824681e-05,4.144842926101798e-05,4.1175620780287355e-05,4.0909188257523513e-05,4.064909045094724e-05,4.039528709916165e-05,4.0147738914932646e-05,3.990640757912095e-05,3.9671255734762746e-05,3.944224698129916e-05,3.921934586895351e-05,3.9002517893255e-05,3.879172948970847e-05,3.8586948028609743e-05,3.838814181000429e-05,3.8195280058790526e-05,3.8008332919965494e-05,3.782727145401195e-05,3.765206763242831e-05,3.748269433339774e-05,3.7319125337598454e-05,3.716133532415246e-05,3.700929986671398e-05,3.6862995429695175e-05,3.6722399364629926e-05,3.6587489906674744e-05,3.645824617124574e-05,3.6334648150792e-05,3.621667671170414e-05,3.610431359135794e-05,3.59975413952927e-05,3.589634359452348e-05,3.5800704522987085e-05,3.571060937512162e-05,3.562604420357867e-05,3.5546995917068155e-05,3.547345227833564e-05,3.540540190227129e-05,3.534283425415075e-05,3.528573964800735e-05,3.523410924513531e-05,3.518793505272401e-05,3.514720992262299e-05,3.511192755023729e-05,3.5082082473553344e-05,3.505767007229491e-05,3.503868656720913e-05,3.5025129019482575e-05,3.5016995330287094e-05,3.5014284240455514e-05
